#wavelength,transmission
8.049349799999999666e-01,1.225735199999999988e-08
8.049886600000000225e-01,1.280621100000000008e-08
8.050423399999999674e-01,1.337887500000000008e-08
8.050960200000000233e-01,1.397633899999999942e-08
8.051496999999999682e-01,1.459964200000000007e-08
8.052033800000000241e-01,1.524986099999999960e-08
8.052570500000000298e-01,1.592812000000000062e-08
8.053107299999999746e-01,1.663558400000000061e-08
8.053644100000000305e-01,1.737346799999999975e-08
8.054180899999999754e-01,1.814303399999999999e-08
8.054717700000000313e-01,1.894559499999999965e-08
8.055254499999999762e-01,1.978251500000000011e-08
8.055791300000000321e-01,2.065521400000000072e-08
8.056328099999999770e-01,2.156516699999999851e-08
8.056864900000000329e-01,2.251390899999999975e-08
8.057401699999999778e-01,2.350303299999999936e-08
8.057938500000000337e-01,2.453419800000000011e-08
8.058475299999999786e-01,2.560912699999999868e-08
8.059012100000000345e-01,2.672960899999999957e-08
8.059548899999999794e-01,2.789750700000000107e-08
8.060085700000000353e-01,2.911475500000000096e-08
8.060622400000000409e-01,3.038336199999999776e-08
8.061159199999999858e-01,3.170541799999999926e-08
8.061696000000000417e-01,3.308309099999999841e-08
8.062232799999999866e-01,3.451863600000000268e-08
8.062769600000000425e-01,3.601439699999999826e-08
8.063306399999999874e-01,3.757280500000000238e-08
8.063843200000000433e-01,3.919638899999999733e-08
8.064379999999999882e-01,4.088777299999999903e-08
8.064916800000000441e-01,4.264968499999999695e-08
8.065453599999999890e-01,4.448495499999999985e-08
8.065990400000000449e-01,4.639652600000000291e-08
8.066527199999999898e-01,4.838744999999999962e-08
8.067064000000000457e-01,5.046089999999999891e-08
8.067600799999999905e-01,5.262016599999999735e-08
8.068137600000000464e-01,5.486866799999999989e-08
8.068674300000000521e-01,5.720995399999999933e-08
8.069211099999999970e-01,5.964770800000000534e-08
8.069747900000000529e-01,6.218575400000000607e-08
8.070284699999999978e-01,6.482806099999999948e-08
8.070821500000000537e-01,6.757874900000000188e-08
8.071358299999999986e-01,7.044209399999999992e-08
8.071895100000000545e-01,7.342253100000000113e-08
8.072431899999999994e-01,7.652466599999999809e-08
8.072968700000000553e-01,7.975327500000000447e-08
8.073505500000000001e-01,8.311331500000000231e-08
8.074042299999999450e-01,8.660993000000000348e-08
8.074579100000000009e-01,9.024845300000000398e-08
8.075115899999999458e-01,9.403441999999999507e-08
8.075652700000000017e-01,9.797357100000000655e-08
8.076189499999999466e-01,1.020718599999999975e-07
8.076726199999999523e-01,1.063354700000000032e-07
8.077263000000000082e-01,1.107707899999999990e-07
8.077799799999999530e-01,1.153844699999999937e-07
8.078336600000000089e-01,1.201834099999999900e-07
8.078873399999999538e-01,1.251747300000000074e-07
8.079410200000000097e-01,1.303658500000000027e-07
8.079946999999999546e-01,1.357644499999999885e-07
8.080483800000000105e-01,1.413784699999999948e-07
8.081020599999999554e-01,1.472161699999999942e-07
8.081557400000000113e-01,1.532861099999999890e-07
8.082094199999999562e-01,1.595971400000000013e-07
8.082631000000000121e-01,1.661584499999999893e-07
8.083167799999999570e-01,1.729795700000000063e-07
8.083704600000000129e-01,1.800703499999999962e-07
8.084241399999999578e-01,1.874410299999999937e-07
8.084778099999999634e-01,1.951021899999999967e-07
8.085314900000000193e-01,2.030648099999999979e-07
8.085851699999999642e-01,2.113402600000000020e-07
8.086388500000000201e-01,2.199403199999999923e-07
8.086925299999999650e-01,2.288771899999999931e-07
8.087462100000000209e-01,2.381635100000000103e-07
8.087998899999999658e-01,2.478123700000000145e-07
8.088535700000000217e-01,2.578373400000000236e-07
8.089072499999999666e-01,2.682524499999999769e-07
8.089609300000000225e-01,2.790722399999999962e-07
8.090146099999999674e-01,2.903117599999999889e-07
8.090682900000000233e-01,3.019866199999999876e-07
8.091219699999999682e-01,3.141129400000000223e-07
8.091756500000000241e-01,3.267074400000000230e-07
8.092293299999999689e-01,3.397874200000000120e-07
8.092829999999999746e-01,3.533707900000000008e-07
8.093366800000000305e-01,3.674760699999999904e-07
8.093903599999999754e-01,3.821224499999999768e-07
8.094440400000000313e-01,3.973297900000000042e-07
8.094977199999999762e-01,4.131186400000000258e-07
8.095514000000000321e-01,4.295102499999999930e-07
8.096050799999999770e-01,4.465266300000000198e-07
8.096587600000000329e-01,4.641905299999999931e-07
8.097124399999999778e-01,4.825255199999999685e-07
8.097661200000000337e-01,5.015559600000000085e-07
8.098197999999999785e-01,5.213070400000000101e-07
8.098734800000000345e-01,5.418048499999999588e-07
8.099271599999999793e-01,5.630763500000000312e-07
8.099808400000000352e-01,5.851494299999999659e-07
8.100345199999999801e-01,6.080529400000000193e-07
8.100881899999999858e-01,6.318167000000000489e-07
8.101418700000000417e-01,6.564715800000000154e-07
8.101955499999999866e-01,6.820494500000000128e-07
8.102492300000000425e-01,7.085832999999999629e-07
8.103029099999999874e-01,7.361072300000000023e-07
8.103565900000000433e-01,7.646564799999999560e-07
8.104102699999999881e-01,7.942674800000000482e-07
8.104639500000000440e-01,8.249779000000000250e-07
8.105176299999999889e-01,8.568266800000000040e-07
8.105713100000000448e-01,8.898540300000000512e-07
8.106249899999999897e-01,9.241015400000000506e-07
8.106786700000000456e-01,9.596121800000000213e-07
8.107323499999999905e-01,9.964303500000000880e-07
8.107860300000000464e-01,1.034601899999999917e-06
8.108397099999999913e-01,1.074174299999999971e-06
8.108933799999999970e-01,1.115196499999999937e-06
8.109470600000000529e-01,1.157719000000000045e-06
8.110007399999999977e-01,1.201794100000000066e-06
8.110544200000000536e-01,1.247475800000000009e-06
8.111080999999999985e-01,1.294819900000000057e-06
8.111617800000000544e-01,1.343883900000000000e-06
8.112154599999999993e-01,1.394727300000000101e-06
8.112691400000000552e-01,1.447411399999999958e-06
8.113228200000000001e-01,1.501999800000000098e-06
8.113764999999999450e-01,1.558557800000000015e-06
8.114301800000000009e-01,1.617152999999999922e-06
8.114838599999999458e-01,1.677855199999999970e-06
8.115375400000000017e-01,1.740736499999999965e-06
8.115912199999999466e-01,1.805871200000000075e-06
8.116449000000000025e-01,1.873336100000000006e-06
8.116985700000000081e-01,1.943210299999999971e-06
8.117522499999999530e-01,2.015575499999999876e-06
8.118059300000000089e-01,2.090516299999999980e-06
8.118596099999999538e-01,2.168119500000000054e-06
8.119132900000000097e-01,2.248475100000000040e-06
8.119669699999999546e-01,2.331675600000000058e-06
8.120206500000000105e-01,2.417816799999999914e-06
8.120743299999999554e-01,2.506997199999999891e-06
8.121280100000000113e-01,2.599318599999999962e-06
8.121816899999999562e-01,2.694885899999999910e-06
8.122353700000000121e-01,2.793807399999999993e-06
8.122890499999999570e-01,2.896194800000000096e-06
8.123427300000000129e-01,3.002163099999999794e-06
8.123964099999999577e-01,3.111830999999999802e-06
8.124500900000000136e-01,3.225321100000000157e-06
8.125037600000000193e-01,3.342759599999999982e-06
8.125574399999999642e-01,3.464276499999999899e-06
8.126111200000000201e-01,3.590006100000000038e-06
8.126647999999999650e-01,3.720086599999999850e-06
8.127184800000000209e-01,3.854660699999999867e-06
8.127721599999999658e-01,3.993875299999999759e-06
8.128258400000000217e-01,4.137881899999999791e-06
8.128795199999999666e-01,4.286836500000000033e-06
8.129332000000000225e-01,4.440900100000000060e-06
8.129868799999999673e-01,4.600238399999999977e-06
8.130405600000000232e-01,4.765022100000000241e-06
8.130942399999999681e-01,4.935427299999999719e-06
8.131479200000000240e-01,5.111635300000000048e-06
8.132015999999999689e-01,5.293832799999999586e-06
8.132552800000000248e-01,5.482212299999999939e-06
8.133089500000000305e-01,5.676971900000000161e-06
8.133626299999999754e-01,5.878315799999999831e-06
8.134163100000000313e-01,6.086454199999999965e-06
8.134699899999999761e-01,6.301603600000000294e-06
8.135236700000000321e-01,6.523986900000000046e-06
8.135773499999999769e-01,6.753833700000000307e-06
8.136310300000000328e-01,6.991380499999999664e-06
8.136847099999999777e-01,7.236870400000000316e-06
8.137383900000000336e-01,7.490554199999999787e-06
8.137920699999999785e-01,7.752689700000000658e-06
8.138457500000000344e-01,8.023542399999999990e-06
8.138994299999999793e-01,8.303385499999999480e-06
8.139531100000000352e-01,8.592500399999999228e-06
8.140067899999999801e-01,8.891176399999999619e-06
8.140604700000000360e-01,9.199711399999999198e-06
8.141141400000000417e-01,9.518411899999999756e-06
8.141678199999999865e-01,9.847593299999999369e-06
8.142215000000000424e-01,1.018758000000000081e-05
8.142751799999999873e-01,1.053870599999999932e-05
8.143288600000000432e-01,1.090131499999999949e-05
8.143825399999999881e-01,1.127575899999999919e-05
8.144362200000000440e-01,1.166240300000000022e-05
8.144898999999999889e-01,1.206161999999999955e-05
8.145435800000000448e-01,1.247379399999999931e-05
8.145972599999999897e-01,1.289932000000000002e-05
8.146509400000000456e-01,1.333860599999999939e-05
8.147046199999999905e-01,1.379206899999999983e-05
8.147583000000000464e-01,1.426013799999999984e-05
8.148119799999999913e-01,1.474325599999999957e-05
8.148656600000000472e-01,1.524187699999999928e-05
8.149193300000000528e-01,1.575646799999999979e-05
8.149730099999999977e-01,1.628750800000000140e-05
8.150266900000000536e-01,1.683549100000000039e-05
8.150803699999999985e-01,1.740092400000000037e-05
8.151340500000000544e-01,1.798432799999999984e-05
8.151877299999999993e-01,1.858623699999999957e-05
8.152414100000000552e-01,1.920720399999999894e-05
8.152950900000000001e-01,1.984779200000000142e-05
8.153487699999999450e-01,2.050858199999999954e-05
8.154024500000000009e-01,2.119017199999999923e-05
8.154561299999999457e-01,2.189317299999999849e-05
8.155098100000000017e-01,2.261821600000000015e-05
8.155634899999999465e-01,2.336594800000000067e-05
8.156171700000000024e-01,2.413703100000000096e-05
8.156708499999999473e-01,2.493214899999999872e-05
8.157245199999999530e-01,2.575200199999999888e-05
8.157782000000000089e-01,2.659731000000000099e-05
8.158318799999999538e-01,2.746880900000000164e-05
8.158855600000000097e-01,2.836725999999999918e-05
8.159392399999999546e-01,2.929343999999999918e-05
8.159929200000000105e-01,3.024814900000000000e-05
8.160465999999999553e-01,3.123220599999999863e-05
8.161002800000000112e-01,3.224645300000000180e-05
8.161539599999999561e-01,3.329175599999999825e-05
8.162076400000000120e-01,3.436900000000000247e-05
8.162613199999999569e-01,3.547909599999999957e-05
8.163150000000000128e-01,3.662297799999999798e-05
8.163686799999999577e-01,3.780160399999999831e-05
8.164223600000000136e-01,3.901595600000000013e-05
8.164760399999999585e-01,4.026704500000000234e-05
8.165297099999999642e-01,4.155590399999999724e-05
8.165833900000000201e-01,4.288359499999999679e-05
8.166370699999999649e-01,4.425120599999999714e-05
8.166907500000000208e-01,4.565985400000000053e-05
8.167444299999999657e-01,4.711068500000000175e-05
8.167981100000000216e-01,4.860487299999999891e-05
8.168517899999999665e-01,5.014362199999999897e-05
8.169054700000000224e-01,5.172816700000000024e-05
8.169591499999999673e-01,5.335977399999999914e-05
8.170128300000000232e-01,5.503974099999999972e-05
8.170665099999999681e-01,5.676939800000000016e-05
8.171201900000000240e-01,5.855011000000000108e-05
8.171738699999999689e-01,6.038327399999999720e-05
8.172275500000000248e-01,6.227032400000000482e-05
8.172812299999999697e-01,6.421272800000000602e-05
8.173348999999999753e-01,6.621198999999999488e-05
8.173885800000000312e-01,6.826965500000000493e-05
8.174422599999999761e-01,7.038729999999999607e-05
8.174959400000000320e-01,7.256654599999999631e-05
8.175496199999999769e-01,7.480905099999999425e-05
8.176033000000000328e-01,7.711651400000000438e-05
8.176569799999999777e-01,7.949067700000000492e-05
8.177106600000000336e-01,8.193331999999999839e-05
8.177643399999999785e-01,8.444627199999999486e-05
8.178180200000000344e-01,8.703140199999999361e-05
8.178716999999999793e-01,8.969062499999999984e-05
8.179253800000000352e-01,9.242590100000000160e-05
8.179790599999999801e-01,9.523924000000000398e-05
8.180327400000000360e-01,9.813269800000000442e-05
8.180864199999999808e-01,1.011083799999999943e-04
8.181400899999999865e-01,1.041684399999999997e-04
8.181937700000000424e-01,1.073150800000000039e-04
8.182474499999999873e-01,1.105505600000000022e-04
8.183011300000000432e-01,1.138771899999999938e-04
8.183548099999999881e-01,1.172973399999999953e-04
8.184084900000000440e-01,1.208134299999999998e-04
8.184621699999999889e-01,1.244279300000000039e-04
8.185158500000000448e-01,1.281433799999999955e-04
8.185695299999999897e-01,1.319623600000000062e-04
8.186232100000000456e-01,1.358875399999999922e-04
8.186768899999999904e-01,1.399216200000000070e-04
8.187305700000000463e-01,1.440673800000000010e-04
8.187842499999999912e-01,1.483276499999999960e-04
8.188379300000000471e-01,1.527053500000000066e-04
8.188916099999999920e-01,1.572034399999999959e-04
8.189452799999999977e-01,1.618249599999999869e-04
8.189989600000000536e-01,1.665730100000000066e-04
8.190526399999999985e-01,1.714507599999999922e-04
8.191063200000000544e-01,1.764614700000000092e-04
8.191599999999999993e-01,1.816084500000000044e-04
8.192136800000000552e-01,1.868950799999999975e-04
8.192673600000000000e-01,1.923248500000000023e-04
8.193210399999999449e-01,1.979012900000000081e-04
8.193747200000000008e-01,2.036280199999999973e-04
8.194283999999999457e-01,2.095087499999999988e-04
8.194820800000000016e-01,2.155472600000000061e-04
8.195357599999999465e-01,2.217474099999999912e-04
8.195894400000000024e-01,2.281131499999999998e-04
8.196431199999999473e-01,2.346485100000000022e-04
8.196968000000000032e-01,2.413576299999999899e-04
8.197504700000000089e-01,2.482447000000000256e-04
8.198041499999999537e-01,2.553140300000000177e-04
8.198578300000000096e-01,2.625700100000000160e-04
8.199115099999999545e-01,2.700171200000000085e-04
8.199651900000000104e-01,2.776599499999999774e-04
8.200188699999999553e-01,2.855031799999999793e-04
8.200725500000000112e-01,2.935515700000000216e-04
8.201262299999999561e-01,3.018100199999999866e-04
8.201799100000000120e-01,3.102834799999999900e-04
8.202335899999999569e-01,3.189770599999999963e-04
8.202872700000000128e-01,3.278959199999999870e-04
8.203409499999999577e-01,3.370453800000000090e-04
8.203946300000000136e-01,3.464308299999999921e-04
8.204483099999999585e-01,3.560577899999999973e-04
8.205019900000000144e-01,3.659318900000000253e-04
8.205556600000000200e-01,3.760588700000000169e-04
8.206093399999999649e-01,3.864445899999999754e-04
8.206630200000000208e-01,3.970950200000000069e-04
8.207166999999999657e-01,4.080162699999999830e-04
8.207703800000000216e-01,4.192145599999999865e-04
8.208240599999999665e-01,4.306962199999999860e-04
8.208777400000000224e-01,4.424677400000000152e-04
8.209314199999999673e-01,4.545357199999999938e-04
8.209851000000000232e-01,4.669068800000000124e-04
8.210387799999999681e-01,4.795880899999999960e-04
8.210924600000000240e-01,4.925863499999999463e-04
8.211461399999999689e-01,5.059087899999999962e-04
8.211998200000000248e-01,5.195626799999999903e-04
8.212534999999999696e-01,5.335554499999999468e-04
8.213071800000000255e-01,5.478946399999999866e-04
8.213608500000000312e-01,5.625879800000000135e-04
8.214145299999999761e-01,5.776432900000000054e-04
8.214682100000000320e-01,5.930685999999999684e-04
8.215218899999999769e-01,6.088720400000000510e-04
8.215755700000000328e-01,6.250619400000000363e-04
8.216292499999999777e-01,6.416467400000000270e-04
8.216829300000000336e-01,6.586350900000000454e-04
8.217366099999999784e-01,6.760357599999999596e-04
8.217902900000000344e-01,6.938577000000000026e-04
8.218439699999999792e-01,7.121100199999999851e-04
8.218976500000000351e-01,7.308020200000000426e-04
8.219513299999999800e-01,7.499431399999999682e-04
8.220050100000000359e-01,7.695430000000000282e-04
8.220586899999999808e-01,7.896114200000000152e-04
8.221123700000000367e-01,8.101583699999999897e-04
8.221660400000000424e-01,8.311940199999999718e-04
8.222197199999999873e-01,8.527287099999999532e-04
8.222734000000000432e-01,8.747729599999999649e-04
8.223270799999999880e-01,8.973374899999999980e-04
8.223807600000000440e-01,9.204332200000000033e-04
8.224344399999999888e-01,9.440712400000000112e-04
8.224881200000000447e-01,9.682628499999999718e-04
8.225417999999999896e-01,9.930195399999999437e-04
8.225954800000000455e-01,1.018353000000000053e-03
8.226491599999999904e-01,1.044275199999999959e-03
8.227028400000000463e-01,1.070798100000000010e-03
8.227565199999999912e-01,1.097934100000000097e-03
8.228102000000000471e-01,1.125695699999999929e-03
8.228638799999999920e-01,1.154095699999999969e-03
8.229175600000000479e-01,1.183147000000000061e-03
8.229712300000000536e-01,1.212862699999999903e-03
8.230249099999999984e-01,1.243256299999999977e-03
8.230785900000000543e-01,1.274341399999999935e-03
8.231322699999999992e-01,1.306131799999999928e-03
8.231859500000000551e-01,1.338641599999999994e-03
8.232396300000000000e-01,1.371885100000000022e-03
8.232933099999999449e-01,1.405876900000000004e-03
8.233469900000000008e-01,1.440631699999999965e-03
8.234006699999999457e-01,1.476164500000000032e-03
8.234543500000000016e-01,1.512490600000000003e-03
8.235080299999999465e-01,1.549625499999999958e-03
8.235617100000000024e-01,1.587584900000000047e-03
8.236153899999999473e-01,1.626384899999999906e-03
8.236690700000000032e-01,1.666041800000000106e-03
8.237227499999999480e-01,1.706571899999999916e-03
8.237764300000000040e-01,1.747992099999999896e-03
8.238301000000000096e-01,1.790319500000000022e-03
8.238837799999999545e-01,1.833571300000000088e-03
8.239374600000000104e-01,1.877765100000000024e-03
8.239911399999999553e-01,1.922918700000000045e-03
8.240448200000000112e-01,1.969050200000000035e-03
8.240984999999999561e-01,2.016178100000000015e-03
8.241521800000000120e-01,2.064320900000000004e-03
8.242058599999999569e-01,2.113497599999999976e-03
8.242595400000000128e-01,2.163727399999999974e-03
8.243132199999999576e-01,2.215029900000000176e-03
8.243669000000000135e-01,2.267424799999999928e-03
8.244205799999999584e-01,2.320932200000000011e-03
8.244742600000000143e-01,2.375572500000000011e-03
8.245279399999999592e-01,2.431366300000000012e-03
8.245816200000000151e-01,2.488334699999999837e-03
8.246352900000000208e-01,2.546498800000000177e-03
8.246889699999999657e-01,2.605880399999999791e-03
8.247426500000000216e-01,2.666501099999999975e-03
8.247963299999999665e-01,2.728383300000000126e-03
8.248500100000000224e-01,2.791549400000000077e-03
8.249036899999999672e-01,2.856022199999999796e-03
8.249573700000000231e-01,2.921824899999999822e-03
8.250110499999999680e-01,2.988980899999999895e-03
8.250647300000000239e-01,3.057513999999999892e-03
8.251184099999999688e-01,3.127448200000000188e-03
8.251720900000000247e-01,3.198807899999999999e-03
8.252257699999999696e-01,3.271617899999999975e-03
8.252794500000000255e-01,3.345903300000000000e-03
8.253331299999999704e-01,3.421689400000000030e-03
8.253868100000000263e-01,3.499001900000000154e-03
8.254404800000000320e-01,3.577867000000000200e-03
8.254941599999999768e-01,3.658311000000000028e-03
8.255478400000000327e-01,3.740360600000000070e-03
8.256015199999999776e-01,3.824043000000000060e-03
8.256552000000000335e-01,3.909385500000000201e-03
8.257088799999999784e-01,3.996415900000000430e-03
8.257625600000000343e-01,4.085162399999999958e-03
8.258162399999999792e-01,4.175653399999999793e-03
8.258699200000000351e-01,4.267917599999999749e-03
8.259235999999999800e-01,4.361984299999999842e-03
8.259772800000000359e-01,4.457883000000000158e-03
8.260309599999999808e-01,4.555643499999999582e-03
8.260846400000000367e-01,4.655296100000000208e-03
8.261383199999999816e-01,4.756871400000000326e-03
8.261920000000000375e-01,4.860400299999999632e-03
8.262456700000000431e-01,4.965914099999999692e-03
8.262993499999999880e-01,5.073444400000000007e-03
