#wavelength,transmission
8.863500399999999502e-01,1.002732600000000012e-10
8.865112200000000442e-01,1.164572900000000037e-10
8.866724000000000272e-01,1.351826699999999955e-10
8.868335800000000102e-01,1.568367000000000060e-10
8.869947599999999932e-01,1.818641200000000060e-10
8.871559399999999762e-01,2.107748900000000048e-10
8.873171199999999592e-01,2.441537800000000155e-10
8.874783000000000532e-01,2.826706700000000036e-10
8.876394800000000362e-01,3.270925900000000135e-10
8.878006600000000192e-01,3.782974699999999758e-10
8.879618400000000022e-01,4.372894100000000048e-10
8.881230199999999853e-01,5.052162299999999963e-10
8.882841999999999683e-01,5.833893800000000181e-10
8.884453799999999513e-01,6.733061599999999798e-10
8.886065600000000453e-01,7.766755899999999488e-10
8.887677400000000283e-01,8.954465100000000087e-10
8.889289200000000113e-01,1.031840800000000075e-09
8.890901100000000445e-01,1.188389300000000054e-09
8.892512900000000275e-01,1.367974200000000080e-09
8.894124700000000106e-01,1.573874699999999911e-09
8.895736499999999936e-01,1.809820899999999937e-09
8.897348299999999766e-01,2.080052199999999945e-09
8.898960099999999596e-01,2.389384999999999809e-09
8.900571900000000536e-01,2.743287399999999942e-09
8.902183700000000366e-01,3.147964200000000051e-09
8.903795500000000196e-01,3.610452500000000049e-09
8.905407300000000026e-01,4.138728200000000084e-09
8.907019099999999856e-01,4.741826000000000330e-09
8.908630899999999686e-01,5.429974799999999892e-09
8.910242699999999516e-01,6.214748299999999736e-09
8.911854500000000456e-01,7.109234799999999737e-09
8.913466300000000286e-01,8.128226299999999402e-09
8.915078100000000116e-01,9.288431300000000360e-09
8.916689899999999946e-01,1.060871200000000008e-08
8.918301699999999776e-01,1.211035099999999997e-08
8.919913600000000109e-01,1.381734399999999939e-08
8.921525399999999939e-01,1.575673699999999896e-08
8.923137199999999769e-01,1.795898799999999837e-08
8.924748999999999599e-01,2.045838700000000123e-08
8.926360800000000539e-01,2.329350799999999868e-08
8.927972600000000369e-01,2.650772399999999957e-08
8.929584400000000199e-01,3.014977400000000272e-08
8.931196200000000029e-01,3.427439600000000023e-08
8.932807999999999859e-01,3.894303000000000299e-08
8.934419799999999690e-01,4.422459799999999820e-08
8.936031599999999520e-01,5.019637200000000108e-08
8.937643400000000460e-01,5.694493399999999687e-08
8.939255200000000290e-01,6.456724300000000639e-08
8.940867000000000120e-01,7.317181400000000194e-08
8.942478799999999950e-01,8.288002799999999404e-08
8.944090599999999780e-01,9.382757500000000497e-08
8.945702399999999610e-01,1.061660600000000051e-07
8.947314200000000550e-01,1.200647500000000031e-07
8.948926099999999773e-01,1.357125699999999943e-07
8.950537899999999603e-01,1.533202000000000099e-07
8.952149700000000543e-01,1.731224900000000106e-07
8.953761500000000373e-01,1.953810600000000003e-07
8.955373300000000203e-01,2.203872000000000109e-07
8.956985100000000033e-01,2.484650300000000245e-07
8.958596899999999863e-01,2.799749700000000143e-07
8.960208699999999693e-01,3.153176199999999896e-07
8.961820499999999523e-01,3.549379400000000189e-07
8.963432300000000463e-01,3.993299100000000074e-07
8.965044100000000293e-01,4.490415699999999805e-07
8.966655900000000123e-01,5.046805700000000461e-07
8.968267699999999953e-01,5.669203400000000127e-07
8.969879499999999783e-01,6.365066599999999809e-07
8.971491299999999613e-01,7.142650599999999766e-07
8.973103100000000554e-01,8.011087200000000203e-07
8.974714900000000384e-01,8.980472199999999986e-07
8.976326700000000214e-01,1.006196100000000038e-06
8.977938600000000546e-01,1.126787099999999956e-06
8.979550400000000376e-01,1.261179599999999999e-06
8.981162200000000206e-01,1.410873200000000100e-06
8.982774000000000036e-01,1.577520499999999968e-06
8.984385799999999866e-01,1.762942399999999953e-06
8.985997599999999697e-01,1.969143500000000165e-06
8.987609399999999527e-01,2.198329699999999936e-06
8.989221200000000467e-01,2.452926700000000135e-06
8.990833000000000297e-01,2.735600399999999874e-06
8.992444800000000127e-01,3.049279200000000114e-06
8.994056599999999957e-01,3.397177499999999968e-06
8.995668399999999787e-01,3.782821600000000021e-06
8.997280199999999617e-01,4.210077899999999599e-06
8.998891999999999447e-01,4.683183200000000370e-06
9.000503800000000387e-01,5.206777000000000276e-06
9.002115600000000217e-01,5.785937000000000335e-06
9.003727400000000047e-01,6.426217200000000121e-06
9.005339300000000380e-01,7.133688600000000138e-06
9.006951100000000210e-01,7.914983999999999163e-06
9.008562900000000040e-01,8.777344599999999805e-06
9.010174699999999870e-01,9.728672100000000566e-06
9.011786499999999700e-01,1.077758300000000011e-05
9.013398299999999530e-01,1.193346699999999990e-05
9.015010100000000470e-01,1.320655299999999966e-05
9.016621900000000300e-01,1.460797400000000028e-05
9.018233700000000130e-01,1.614983999999999851e-05
9.019845499999999960e-01,1.784531799999999928e-05
9.021457299999999790e-01,1.970871400000000153e-05
9.023069099999999620e-01,2.175556099999999884e-05
9.024680899999999451e-01,2.400271699999999959e-05
9.026292700000000391e-01,2.646846300000000124e-05
9.027904500000000221e-01,2.917261400000000082e-05
9.029516300000000051e-01,3.213663200000000080e-05
9.031128099999999881e-01,3.538375099999999752e-05
9.032739899999999711e-01,3.893910599999999764e-05
9.034351800000000043e-01,4.282987300000000083e-05
9.035963599999999873e-01,4.708541399999999981e-05
9.037575399999999703e-01,5.173743600000000221e-05
9.039187199999999534e-01,5.682015499999999876e-05
9.040799000000000474e-01,6.237047400000000419e-05
9.042410800000000304e-01,6.842816600000000359e-05
9.044022600000000134e-01,7.503606999999999595e-05
9.045634399999999964e-01,8.224030400000000365e-05
9.047246199999999794e-01,9.009047599999999508e-05
9.048857999999999624e-01,9.863992200000000423e-05
9.050469799999999454e-01,1.079459499999999960e-04
9.052081600000000394e-01,1.180700800000000051e-04
9.053693400000000224e-01,1.290783500000000107e-04
9.055305200000000054e-01,1.410415500000000049e-04
9.056916999999999884e-01,1.540355599999999967e-04
9.058528799999999714e-01,1.681416400000000058e-04
9.060140599999999544e-01,1.834467699999999912e-04
9.061752400000000485e-01,2.000439900000000105e-04
9.063364299999999707e-01,2.180327199999999984e-04
9.064976099999999537e-01,2.375192100000000017e-04
9.066587900000000477e-01,2.586168399999999828e-04
9.068199700000000307e-01,2.814466099999999769e-04
9.069811500000000137e-01,3.061374899999999935e-04
9.071423299999999967e-01,3.328269000000000236e-04
9.073035099999999797e-01,3.616611700000000175e-04
9.074646899999999627e-01,3.927959800000000237e-04
9.076258699999999457e-01,4.263968900000000232e-04
9.077870500000000398e-01,4.626397999999999882e-04
9.079482300000000228e-01,5.017115200000000445e-04
9.081094100000000058e-01,5.438103000000000338e-04
9.082705899999999888e-01,5.891463699999999583e-04
9.084317699999999718e-01,6.379425200000000485e-04
9.085929499999999548e-01,6.904347099999999515e-04
9.087541300000000488e-01,7.468726599999999521e-04
9.089153100000000318e-01,8.075204799999999728e-04
9.090764900000000148e-01,8.726572999999999839e-04
9.092376800000000481e-01,9.425779200000000083e-04
9.093988600000000311e-01,1.017593499999999967e-03
9.095600400000000141e-01,1.098032199999999939e-03
9.097212199999999971e-01,1.184239899999999998e-03
9.098823999999999801e-01,1.276580800000000088e-03
9.100435799999999631e-01,1.375438500000000048e-03
9.102047599999999461e-01,1.481216000000000043e-03
9.103659400000000401e-01,1.594337099999999958e-03
9.105271200000000231e-01,1.715247100000000073e-03
9.106883000000000061e-01,1.844412799999999974e-03
9.108494799999999891e-01,1.982324199999999786e-03
9.110106599999999721e-01,2.129494500000000175e-03
9.111718399999999551e-01,2.286461400000000185e-03
9.113330200000000492e-01,2.453787199999999877e-03
9.114942000000000322e-01,2.632060199999999937e-03
9.116553800000000152e-01,2.821894699999999943e-03
9.118165599999999982e-01,3.023932400000000145e-03
9.119777399999999812e-01,3.238842699999999828e-03
9.121389300000000144e-01,3.467323200000000088e-03
9.123001099999999974e-01,3.710100799999999869e-03
9.124612899999999804e-01,3.967932000000000403e-03
9.126224699999999634e-01,4.241603600000000245e-03
9.127836499999999464e-01,4.531933200000000210e-03
9.129448300000000405e-01,4.839769899999999715e-03
9.131060100000000235e-01,5.165994699999999946e-03
9.132671900000000065e-01,5.511520800000000060e-03
9.134283699999999895e-01,5.877294199999999989e-03
9.135895499999999725e-01,6.264294000000000112e-03
9.137507299999999555e-01,6.673532900000000122e-03
9.139119100000000495e-01,7.106057100000000293e-03
9.140730900000000325e-01,7.562946699999999883e-03
9.142342700000000155e-01,8.045315900000000672e-03
9.143954499999999985e-01,8.554312999999999154e-03
9.145566299999999815e-01,9.091120299999999946e-03
9.147178099999999645e-01,9.656954199999999780e-03
9.148789899999999475e-01,1.025306500000000044e-02
9.150401799999999808e-01,1.088073600000000023e-02
9.152013599999999638e-01,1.154128500000000009e-02
9.153625399999999468e-01,1.223606099999999947e-02
9.155237200000000408e-01,1.296644800000000021e-02
9.156849000000000238e-01,1.373385799999999983e-02
9.158460800000000068e-01,1.453973700000000049e-02
9.160072599999999898e-01,1.538556100000000072e-02
9.161684399999999728e-01,1.627283300000000044e-02
9.163296199999999558e-01,1.720308699999999885e-02
9.164908000000000499e-01,1.817788199999999937e-02
9.166519800000000329e-01,1.919880499999999934e-02
9.168131600000000159e-01,2.026746499999999840e-02
9.169743399999999989e-01,2.138549600000000037e-02
9.171355199999999819e-01,2.255455199999999855e-02
9.172966999999999649e-01,2.377630799999999947e-02
9.174578799999999479e-01,2.505245600000000072e-02
9.176190600000000419e-01,2.638470199999999946e-02
9.177802400000000249e-01,2.777477000000000071e-02
9.179414299999999471e-01,2.922439099999999887e-02
9.181026100000000412e-01,3.073530799999999938e-02
9.182637900000000242e-01,3.230926900000000157e-02
9.184249700000000072e-01,3.394802599999999920e-02
9.185861499999999902e-01,3.565333500000000128e-02
9.187473299999999732e-01,3.742694800000000155e-02
9.189085099999999562e-01,3.927061099999999694e-02
9.190696900000000502e-01,4.118606699999999982e-02
9.192308700000000332e-01,4.317504600000000164e-02
9.193920500000000162e-01,4.523926300000000178e-02
9.195532299999999992e-01,4.738041700000000106e-02
9.197144099999999822e-01,4.960018800000000339e-02
9.198755899999999652e-01,5.190022899999999911e-02
9.200367699999999482e-01,5.428216699999999922e-02
9.201979500000000423e-01,5.674759699999999685e-02
9.203591300000000253e-01,5.929808000000000301e-02
9.205203100000000083e-01,6.193513700000000122e-02
9.206815000000000415e-01,6.466024800000000350e-02
9.208426800000000245e-01,6.747484300000000657e-02
9.210038600000000075e-01,7.038030600000000359e-02
9.211650399999999905e-01,7.337796300000000438e-02
9.213262199999999735e-01,7.646908500000000608e-02
9.214873999999999565e-01,7.965487899999999788e-02
9.216485800000000506e-01,8.293648600000000370e-02
9.218097600000000336e-01,8.631497900000000001e-02
9.219709400000000166e-01,8.979135400000000378e-02
9.221321199999999996e-01,9.336653400000000103e-02
9.222932999999999826e-01,9.704135699999999476e-02
9.224544799999999656e-01,1.008165800000000029e-01
9.226156599999999486e-01,1.046928599999999987e-01
9.227768400000000426e-01,1.086707900000000032e-01
9.229380200000000256e-01,1.127508299999999963e-01
9.230992000000000086e-01,1.169333699999999948e-01
9.232603799999999916e-01,1.212186900000000039e-01
9.234215599999999746e-01,1.256069599999999897e-01
9.235827500000000079e-01,1.300982599999999934e-01
9.237439299999999909e-01,1.346925300000000048e-01
9.239051099999999739e-01,1.393896199999999919e-01
9.240662899999999569e-01,1.441892700000000083e-01
9.242274700000000509e-01,1.490910799999999869e-01
9.243886500000000339e-01,1.540945599999999915e-01
9.245498300000000169e-01,1.591990600000000033e-01
9.247110099999999999e-01,1.644038499999999903e-01
9.248721899999999829e-01,1.697080599999999939e-01
9.250333699999999659e-01,1.751106900000000133e-01
9.251945499999999489e-01,1.806106100000000048e-01
9.253557300000000430e-01,1.862065900000000052e-01
9.255169100000000260e-01,1.918972499999999914e-01
9.256780900000000090e-01,1.976810900000000037e-01
9.258392699999999920e-01,2.035565000000000013e-01
9.260004499999999750e-01,2.095217299999999894e-01
9.261616299999999580e-01,2.155749000000000137e-01
9.263228100000000520e-01,2.217140400000000011e-01
9.264839999999999742e-01,2.279370099999999955e-01
9.266451799999999572e-01,2.342415999999999943e-01
9.268063600000000513e-01,2.406254399999999960e-01
9.269675400000000343e-01,2.470860900000000082e-01
9.271287200000000173e-01,2.536209500000000117e-01
9.272899000000000003e-01,2.602273399999999737e-01
9.274510799999999833e-01,2.669024799999999975e-01
9.276122599999999663e-01,2.736434600000000050e-01
9.277734399999999493e-01,2.804472900000000157e-01
9.279346200000000433e-01,2.873108699999999960e-01
9.280958000000000263e-01,2.942310300000000045e-01
9.282569800000000093e-01,3.012044999999999861e-01
9.284181599999999923e-01,3.082279199999999886e-01
9.285793399999999753e-01,3.152978599999999854e-01
9.287405199999999583e-01,3.224108299999999816e-01
9.289017000000000523e-01,3.295632499999999743e-01
9.290628800000000354e-01,3.367514899999999867e-01
9.292240600000000184e-01,3.439718600000000182e-01
9.293852500000000516e-01,3.512206199999999834e-01
9.295464300000000346e-01,3.584939899999999846e-01
9.297076100000000176e-01,3.657881399999999839e-01
9.298687900000000006e-01,3.730992200000000092e-01
9.300299699999999836e-01,3.804233399999999987e-01
9.301911499999999666e-01,3.877566000000000068e-01
9.303523299999999496e-01,3.950950699999999927e-01
9.305135100000000437e-01,4.024348300000000211e-01
9.306746900000000267e-01,4.097719400000000012e-01
9.308358700000000097e-01,4.171024899999999924e-01
9.309970499999999927e-01,4.244225600000000043e-01
9.311582299999999757e-01,4.317282399999999853e-01
9.313194099999999587e-01,4.390156599999999743e-01
9.314805900000000527e-01,4.462809799999999938e-01
9.316417700000000357e-01,4.535203800000000007e-01
9.318029500000000187e-01,4.607300899999999810e-01
9.319641300000000017e-01,4.679064000000000001e-01
9.321253099999999847e-01,4.750456200000000018e-01
9.322865000000000180e-01,4.821441599999999883e-01
9.324476800000000010e-01,4.891984600000000016e-01
9.326088599999999840e-01,4.962050499999999809e-01
9.327700399999999670e-01,5.031605099999999497e-01
9.329312199999999500e-01,5.100615400000000355e-01
9.330924000000000440e-01,5.169048800000000110e-01
9.332535800000000270e-01,5.236873899999999749e-01
9.334147600000000100e-01,5.304060099999999833e-01
9.335759399999999930e-01,5.370577699999999899e-01
9.337371199999999760e-01,5.436398199999999958e-01
9.338982999999999590e-01,5.501493899999999604e-01
9.340594800000000530e-01,5.565838499999999911e-01
9.342206600000000360e-01,5.629406500000000424e-01
9.343818400000000191e-01,5.692173600000000055e-01
9.345430200000000021e-01,5.754116799999999810e-01
9.347041999999999851e-01,5.815214199999999556e-01
9.348653799999999681e-01,5.875445000000000251e-01
9.350265599999999511e-01,5.934789700000000501e-01
9.351877499999999843e-01,5.993230099999999894e-01
9.353489299999999673e-01,6.050749100000000213e-01
9.355101099999999503e-01,6.107331000000000287e-01
9.356712900000000444e-01,6.162961099999999526e-01
9.358324700000000274e-01,6.217626299999999828e-01
9.359936500000000104e-01,6.271314599999999739e-01
9.361548299999999934e-01,6.324014999999999498e-01
9.363160099999999764e-01,6.375718200000000113e-01
9.364771899999999594e-01,6.426415800000000456e-01
9.366383700000000534e-01,6.476100700000000376e-01
9.367995500000000364e-01,6.524767200000000100e-01
9.369607300000000194e-01,6.572410499999999933e-01
9.371219100000000024e-01,6.619027299999999947e-01
9.372830899999999854e-01,6.664615200000000295e-01
9.374442699999999684e-01,6.709173000000000497e-01
9.376054499999999514e-01,6.752700699999999445e-01
9.377666300000000454e-01,6.795199400000000445e-01
9.379278199999999677e-01,6.836671100000000223e-01
9.380889999999999507e-01,6.877119099999999818e-01
9.382501800000000447e-01,6.916547400000000456e-01
9.384113600000000277e-01,6.954961200000000510e-01
9.385725400000000107e-01,6.992366500000000151e-01
9.387337199999999937e-01,7.028770399999999530e-01
9.388948999999999767e-01,7.064180599999999588e-01
9.390560799999999597e-01,7.098605900000000135e-01
9.392172600000000537e-01,7.132055699999999554e-01
9.393784400000000367e-01,7.164540299999999640e-01
9.395396200000000198e-01,7.196070599999999651e-01
9.397008000000000028e-01,7.226658200000000143e-01
9.398619799999999858e-01,7.256315500000000140e-01
9.400231599999999688e-01,7.285055400000000070e-01
9.401843399999999518e-01,7.312891299999999539e-01
9.403455200000000458e-01,7.339837299999999454e-01
9.405067000000000288e-01,7.365907699999999503e-01
9.406678800000000118e-01,7.391117699999999457e-01
9.408290700000000450e-01,7.415482399999999696e-01
9.409902500000000281e-01,7.439017700000000177e-01
9.411514300000000111e-01,7.461739499999999747e-01
9.413126099999999941e-01,7.483664399999999661e-01
9.414737899999999771e-01,7.504808800000000168e-01
9.416349699999999601e-01,7.525189700000000093e-01
9.417961500000000541e-01,7.544824100000000477e-01
9.419573300000000371e-01,7.563729200000000041e-01
9.421185100000000201e-01,7.581922399999999618e-01
9.422796900000000031e-01,7.599421200000000542e-01
9.424408699999999861e-01,7.616242899999999816e-01
9.426020499999999691e-01,7.632405100000000386e-01
9.427632299999999521e-01,7.647925399999999652e-01
9.429244100000000461e-01,7.662821300000000058e-01
9.430855900000000291e-01,7.677110299999999610e-01
9.432467700000000121e-01,7.690809699999999749e-01
9.434079499999999951e-01,7.703936900000000199e-01
9.435691299999999782e-01,7.716509000000000285e-01
9.437303200000000114e-01,7.728542999999999941e-01
9.438914999999999944e-01,7.740055799999999708e-01
9.440526799999999774e-01,7.751063999999999732e-01
9.442138599999999604e-01,7.761584200000000155e-01
9.443750400000000544e-01,7.771632699999999616e-01
9.445362200000000374e-01,7.781225299999999789e-01
9.446974000000000204e-01,7.790377899999999523e-01
9.448585800000000035e-01,7.799106099999999486e-01
9.450197599999999865e-01,7.807424899999999557e-01
9.451809399999999695e-01,7.815349499999999505e-01
9.453421199999999525e-01,7.822894400000000026e-01
9.455033000000000465e-01,7.830073899999999698e-01
9.456644800000000295e-01,7.836902100000000537e-01
9.458256600000000125e-01,7.843392799999999720e-01
9.459868399999999955e-01,7.849559200000000292e-01
9.461480199999999785e-01,7.855414499999999745e-01
9.463091999999999615e-01,7.860971399999999720e-01
9.464703799999999445e-01,7.866242300000000354e-01
9.466315699999999778e-01,7.871239199999999769e-01
9.467927499999999608e-01,7.875973699999999633e-01
9.469539300000000548e-01,7.880457400000000501e-01
9.471151100000000378e-01,7.884701200000000521e-01
9.472762900000000208e-01,7.888715800000000167e-01
9.474374700000000038e-01,7.892511500000000124e-01
9.475986499999999868e-01,7.896098299999999570e-01
9.477598299999999698e-01,7.899486000000000008e-01
9.479210099999999528e-01,7.902683799999999925e-01
9.480821900000000468e-01,7.905700900000000031e-01
9.482433700000000298e-01,7.908545799999999737e-01
9.484045500000000128e-01,7.911226999999999565e-01
9.485657299999999958e-01,7.913752600000000248e-01
9.487269099999999789e-01,7.916130200000000006e-01
9.488880899999999619e-01,7.918367499999999781e-01
9.490492699999999449e-01,7.920471399999999829e-01
9.492104500000000389e-01,7.922449000000000296e-01
9.493716300000000219e-01,7.924306800000000539e-01
9.495328200000000551e-01,7.926051100000000016e-01
9.496940000000000381e-01,7.927688000000000512e-01
9.498551800000000211e-01,7.929223300000000085e-01
9.500163600000000041e-01,7.930662499999999726e-01
9.501775399999999872e-01,7.932010900000000531e-01
9.503387199999999702e-01,7.933273499999999867e-01
9.504998999999999532e-01,7.934455299999999545e-01
