#wavelength,transmission
1.142944900000000041e+00,1.589838699999999903e-16
1.143037499999999929e+00,1.589838699999999903e-16
1.143130100000000038e+00,1.589838699999999903e-16
1.143222699999999925e+00,1.589838699999999903e-16
1.143315300000000034e+00,1.987298400000000060e-16
1.143407899999999922e+00,2.384757999999999987e-16
1.143500500000000031e+00,2.384757999999999987e-16
1.143593099999999918e+00,2.782217699999999897e-16
1.143685700000000027e+00,3.179677399999999807e-16
1.143778299999999915e+00,3.577137000000000228e-16
1.143870900000000024e+00,3.974596700000000137e-16
1.143963499999999911e+00,4.372056400000000047e-16
1.144056100000000020e+00,4.769516099999999957e-16
1.144148699999999907e+00,5.564435399999999794e-16
1.144241199999999958e+00,5.961895100000000197e-16
1.144333800000000068e+00,6.359354699999999632e-16
1.144426399999999955e+00,7.154274100000000437e-16
1.144519000000000064e+00,7.949193400000000274e-16
1.144611599999999951e+00,9.141572499999999511e-16
1.144704200000000061e+00,1.033395100000000083e-15
1.144796799999999948e+00,1.112887099999999955e-15
1.144889400000000057e+00,1.271870899999999934e-15
1.144981999999999944e+00,1.430854800000000091e-15
1.145074600000000054e+00,1.550092700000000016e-15
1.145167199999999941e+00,1.748822600000000012e-15
1.145259800000000050e+00,1.907806399999999990e-15
1.145352399999999937e+00,2.146282199999999841e-15
1.145445000000000046e+00,2.384758000000000086e-15
1.145537599999999934e+00,2.623233799999999937e-15
1.145630200000000043e+00,2.941201599999999857e-15
1.145722700000000094e+00,3.259169300000000190e-15
1.145815299999999981e+00,3.616882999999999967e-15
1.145907900000000090e+00,4.014342699999999975e-15
1.146000499999999978e+00,4.451548299999999839e-15
1.146093100000000087e+00,4.928499900000000329e-15
1.146185699999999974e+00,5.484943499999999706e-15
1.146278300000000083e+00,6.120878900000000372e-15
1.146370899999999970e+00,6.756814400000000232e-15
1.146463500000000080e+00,7.472241800000000573e-15
1.146556099999999967e+00,8.306907099999999656e-15
1.146648700000000076e+00,9.221064399999999993e-15
1.146741299999999963e+00,1.021471399999999995e-14
1.146833900000000073e+00,1.128785499999999969e-14
1.146926499999999960e+00,1.255972599999999941e-14
1.147019100000000069e+00,1.391108900000000038e-14
1.147111699999999956e+00,1.538168899999999868e-14
1.147204200000000007e+00,1.701127399999999930e-14
1.147296799999999894e+00,1.883958800000000008e-14
1.147389400000000004e+00,2.086663300000000066e-14
1.147481999999999891e+00,2.313215299999999887e-14
1.147574600000000000e+00,2.555665699999999958e-14
1.147667200000000109e+00,2.829912899999999899e-14
1.147759799999999997e+00,3.131982199999999982e-14
1.147852400000000106e+00,3.461873700000000187e-14
1.147944999999999993e+00,3.827536599999999694e-14
1.148037600000000102e+00,4.232945499999999828e-14
1.148130199999999990e+00,4.678100299999999975e-14
1.148222800000000099e+00,5.170950300000000243e-14
1.148315399999999986e+00,5.715470099999999432e-14
1.148408000000000095e+00,6.311659599999999453e-14
1.148500599999999983e+00,6.975417199999999927e-14
1.148593200000000092e+00,7.702768400000000141e-14
1.148685699999999921e+00,8.505637000000000283e-14
1.148778300000000030e+00,9.395946600000000577e-14
1.148870899999999917e+00,1.036972299999999963e-13
1.148963500000000026e+00,1.144683899999999904e-13
1.149056099999999914e+00,1.263126799999999910e-13
1.149148700000000023e+00,1.393493599999999960e-13
1.149241299999999910e+00,1.537373999999999978e-13
1.149333900000000019e+00,1.695562999999999962e-13
1.149426499999999907e+00,1.870445199999999977e-13
1.149519100000000016e+00,2.062020799999999990e-13
1.149611699999999903e+00,2.273469299999999955e-13
1.149704300000000012e+00,2.505585800000000231e-13
1.149796899999999900e+00,2.761152300000000018e-13
1.149889500000000009e+00,3.042156299999999817e-13
1.149982099999999896e+00,3.351379999999999802e-13
1.150074700000000005e+00,3.691605399999999928e-13
1.150167299999999893e+00,4.065217500000000192e-13
1.150259799999999943e+00,4.476190799999999789e-13
1.150352400000000053e+00,4.927705000000000155e-13
1.150444999999999940e+00,5.424132100000000234e-13
1.150537600000000049e+00,5.969049399999999549e-13
1.150630199999999936e+00,6.567623600000000502e-13
1.150722800000000046e+00,7.225419399999999980e-13
1.150815399999999933e+00,7.947603600000000242e-13
1.150908000000000042e+00,8.740138199999999724e-13
1.151000599999999929e+00,9.609779899999999815e-13
1.151093200000000039e+00,1.056487599999999902e-12
1.151185799999999926e+00,1.161218199999999944e-12
1.151278400000000035e+00,1.276163500000000088e-12
1.151370999999999922e+00,1.402237699999999976e-12
1.151463600000000032e+00,1.540474199999999999e-12
1.151556199999999919e+00,1.692065299999999992e-12
1.151648800000000028e+00,1.858203499999999899e-12
1.151741300000000079e+00,2.040359199999999944e-12
1.151833899999999966e+00,2.239963500000000081e-12
1.151926500000000075e+00,2.458645799999999827e-12
1.152019099999999963e+00,2.698234500000000078e-12
1.152111700000000072e+00,2.960677099999999802e-12
1.152204299999999959e+00,3.248040400000000192e-12
1.152296900000000068e+00,3.562669499999999918e-12
1.152389499999999956e+00,3.907108099999999609e-12
1.152482100000000065e+00,4.284138299999999785e-12
1.152574699999999952e+00,4.696741199999999923e-12
1.152667300000000061e+00,5.148136099999999681e-12
1.152759899999999949e+00,5.642019500000000343e-12
1.152852500000000058e+00,6.182127500000000206e-12
1.152945099999999945e+00,6.772792299999999977e-12
1.153037700000000054e+00,7.418584799999999217e-12
1.153130299999999941e+00,8.124632100000000289e-12
1.153222799999999992e+00,8.896260299999999265e-12
1.153315400000000102e+00,9.739471000000000072e-12
1.153407999999999989e+00,1.066078299999999985e-11
1.153500600000000098e+00,1.166723000000000056e-11
1.153593199999999985e+00,1.276648399999999942e-11
1.153685800000000095e+00,1.396689200000000042e-11
1.153778399999999982e+00,1.527751500000000127e-11
1.153871000000000091e+00,1.670825100000000140e-11
1.153963599999999978e+00,1.826975100000000035e-11
1.154056200000000088e+00,1.997377900000000037e-11
1.154148799999999975e+00,2.183293699999999955e-11
1.154241400000000084e+00,2.386101399999999941e-11
1.154333999999999971e+00,2.607303699999999882e-11
1.154426600000000080e+00,2.848509999999999865e-11
1.154519199999999968e+00,3.111497099999999679e-11
1.154611800000000077e+00,3.398172899999999825e-11
1.154704299999999906e+00,3.710619899999999817e-11
1.154796900000000015e+00,4.051099799999999859e-11
1.154889499999999902e+00,4.422048900000000137e-11
1.154982100000000012e+00,4.826134200000000239e-11
1.155074699999999899e+00,5.266229400000000167e-11
1.155167300000000008e+00,5.745470300000000005e-11
1.155259899999999895e+00,6.267231500000000042e-11
1.155352500000000004e+00,6.835197400000000393e-11
1.155445099999999892e+00,7.453346599999999756e-11
1.155537700000000001e+00,8.125991400000000113e-11
1.155630300000000110e+00,8.857810100000000177e-11
1.155722899999999997e+00,9.653862200000000284e-11
1.155815500000000107e+00,1.051964100000000045e-10
1.155908099999999994e+00,1.146108399999999992e-10
1.156000700000000103e+00,1.248462200000000028e-10
1.156093299999999990e+00,1.359721500000000101e-10
1.156185900000000100e+00,1.480639800000000006e-10
1.156278399999999928e+00,1.612032800000000029e-10
1.156371000000000038e+00,1.754782900000000059e-10
1.156463599999999925e+00,1.909842999999999967e-10
1.156556200000000034e+00,2.078246700000000069e-10
1.156648799999999921e+00,2.261108700000000063e-10
1.156741400000000031e+00,2.459635499999999907e-10
1.156833999999999918e+00,2.675131300000000254e-10
1.156926600000000027e+00,2.909005000000000027e-10
1.157019199999999914e+00,3.162778199999999748e-10
1.157111800000000024e+00,3.438096899999999888e-10
1.157204399999999911e+00,3.736736200000000094e-10
1.157297000000000020e+00,4.060614900000000116e-10
1.157389599999999907e+00,4.411804300000000239e-10
1.157482200000000017e+00,4.792539300000000062e-10
1.157574799999999904e+00,5.205232800000000091e-10
1.157667400000000013e+00,5.652488599999999749e-10
1.157759900000000064e+00,6.137115599999999631e-10
1.157852499999999951e+00,6.662143499999999577e-10
1.157945100000000060e+00,7.230839099999999943e-10
1.158037699999999948e+00,7.846726700000000450e-10
1.158130300000000057e+00,8.513603700000000400e-10
1.158222899999999944e+00,9.235563700000000252e-10
1.158315500000000053e+00,1.001701899999999949e-09
1.158408099999999941e+00,1.086272299999999920e-09
1.158500700000000050e+00,1.177779599999999914e-09
1.158593299999999937e+00,1.276775299999999960e-09
1.158685900000000046e+00,1.383853199999999917e-09
1.158778499999999934e+00,1.499652899999999980e-09
1.158871100000000043e+00,1.624862400000000053e-09
1.158963699999999930e+00,1.760222599999999947e-09
1.159056300000000039e+00,1.906530500000000192e-09
1.159148899999999927e+00,2.064643599999999924e-09
1.159241399999999977e+00,2.235484199999999910e-09
1.159334000000000087e+00,2.420044099999999911e-09
1.159426599999999974e+00,2.619389999999999988e-09
1.159519200000000083e+00,2.834668299999999969e-09
1.159611799999999970e+00,3.067111200000000144e-09
1.159704400000000080e+00,3.318043100000000006e-09
1.159796999999999967e+00,3.588886700000000190e-09
1.159889600000000076e+00,3.881170299999999836e-09
1.159982199999999963e+00,4.196535300000000225e-09
1.160074800000000073e+00,4.536744399999999945e-09
1.160167399999999960e+00,4.903689900000000020e-09
1.160260000000000069e+00,5.299403100000000286e-09
1.160352599999999956e+00,5.726063699999999912e-09
1.160445200000000066e+00,6.186010700000000040e-09
1.160537799999999953e+00,6.681753499999999885e-09
1.160630400000000062e+00,7.215983400000000396e-09
1.160722899999999891e+00,7.791586700000000163e-09
1.160815500000000000e+00,8.411657899999999625e-09
1.160908100000000109e+00,9.079514299999999933e-09
1.161000699999999997e+00,9.798711099999999490e-09
1.161093300000000106e+00,1.057305800000000007e-08
1.161185899999999993e+00,1.140663799999999959e-08
1.161278500000000102e+00,1.230382200000000003e-08
1.161371099999999990e+00,1.326929300000000033e-08
1.161463700000000099e+00,1.430806500000000068e-08
1.161556299999999986e+00,1.542550499999999966e-08
1.161648900000000095e+00,1.662735899999999922e-08
1.161741499999999983e+00,1.791977499999999874e-08
1.161834100000000092e+00,1.930933100000000068e-08
1.161926699999999979e+00,2.080306599999999894e-08
1.162019300000000088e+00,2.240850399999999974e-08
1.162111899999999975e+00,2.413369599999999863e-08
1.162204400000000026e+00,2.598724499999999839e-08
1.162296999999999914e+00,2.797835100000000018e-08
1.162389600000000023e+00,3.011684200000000021e-08
1.162482199999999910e+00,3.241322399999999908e-08
1.162574800000000019e+00,3.487871700000000327e-08
1.162667399999999907e+00,3.752530799999999910e-08
1.162760000000000016e+00,4.036579699999999711e-08
1.162852599999999903e+00,4.341385100000000297e-08
1.162945200000000012e+00,4.668405899999999863e-08
1.163037799999999899e+00,5.019199200000000114e-08
1.163130400000000009e+00,5.395426600000000001e-08
1.163222999999999896e+00,5.798861100000000238e-08
1.163315600000000005e+00,6.231393399999999683e-08
1.163408199999999892e+00,6.695040500000000069e-08
1.163500800000000002e+00,7.191952700000000287e-08
1.163593400000000111e+00,7.724422599999999927e-08
1.163685999999999998e+00,8.294893799999999727e-08
1.163778500000000049e+00,8.905970199999999575e-08
1.163871099999999936e+00,9.560426499999999545e-08
1.163963700000000046e+00,1.026121799999999971e-07
1.164056299999999933e+00,1.101149300000000012e-07
1.164148900000000042e+00,1.181460400000000041e-07
1.164241499999999929e+00,1.267411900000000107e-07
1.164334100000000038e+00,1.359383700000000015e-07
1.164426699999999926e+00,1.457780100000000066e-07
1.164519300000000035e+00,1.563031299999999886e-07
1.164611899999999922e+00,1.675594900000000024e-07
1.164704500000000031e+00,1.795957599999999919e-07
1.164797099999999919e+00,1.924637200000000121e-07
1.164889700000000028e+00,2.062183999999999959e-07
1.164982299999999915e+00,2.209182999999999964e-07
1.165074900000000024e+00,2.366255900000000123e-07
1.165167499999999912e+00,2.534063600000000216e-07
1.165259999999999962e+00,2.713308000000000251e-07
1.165352600000000072e+00,2.904734700000000206e-07
1.165445199999999959e+00,3.109135499999999829e-07
1.165537800000000068e+00,3.327351099999999966e-07
1.165630399999999955e+00,3.560274200000000039e-07
1.165723000000000065e+00,3.808852000000000231e-07
1.165815599999999952e+00,4.074089800000000255e-07
1.165908200000000061e+00,4.357054199999999845e-07
1.166000799999999948e+00,4.658876400000000135e-07
1.166093400000000058e+00,4.980756500000000201e-07
1.166185999999999945e+00,5.323966600000000366e-07
1.166278600000000054e+00,5.689855600000000023e-07
1.166371199999999941e+00,6.079853100000000138e-07
1.166463800000000051e+00,6.495474199999999481e-07
1.166556399999999938e+00,6.938324099999999673e-07
1.166649000000000047e+00,7.410103299999999689e-07
1.166741500000000098e+00,7.912612699999999542e-07
1.166834099999999985e+00,8.447759400000000142e-07
1.166926700000000094e+00,9.017562499999999986e-07
1.167019299999999982e+00,9.624158999999999617e-07
1.167111900000000091e+00,1.026981099999999916e-06
1.167204499999999978e+00,1.095691100000000059e-06
1.167297100000000087e+00,1.168799100000000054e-06
1.167389699999999975e+00,1.246572800000000070e-06
1.167482300000000084e+00,1.329295399999999961e-06
1.167574899999999971e+00,1.417266299999999904e-06
1.167667500000000080e+00,1.510801799999999967e-06
1.167760099999999968e+00,1.610236399999999962e-06
1.167852700000000077e+00,1.715923500000000072e-06
1.167945299999999964e+00,1.828236400000000035e-06
1.168037900000000073e+00,1.947569299999999805e-06
1.168130499999999961e+00,2.074338699999999974e-06
1.168223000000000011e+00,2.208984099999999862e-06
1.168315599999999899e+00,2.351969599999999935e-06
1.168408200000000008e+00,2.503784899999999925e-06
1.168500799999999895e+00,2.664946899999999975e-06
1.168593400000000004e+00,2.836000700000000035e-06
1.168685999999999892e+00,3.017521499999999973e-06
1.168778600000000001e+00,3.210115499999999877e-06
1.168871200000000110e+00,3.414422299999999871e-06
1.168963799999999997e+00,3.631115799999999984e-06
1.169056400000000107e+00,3.860906400000000091e-06
1.169148999999999994e+00,4.104542599999999783e-06
1.169241600000000103e+00,4.362813099999999634e-06
1.169334199999999990e+00,4.636548399999999804e-06
1.169426800000000100e+00,4.926623199999999855e-06
1.169519399999999987e+00,5.233958699999999887e-06
1.169612000000000096e+00,5.559524200000000421e-06
1.169704499999999925e+00,5.904340299999999601e-06
1.169797100000000034e+00,6.269480499999999850e-06
1.169889699999999921e+00,6.656074599999999869e-06
1.169982300000000031e+00,7.065310800000000144e-06
1.170074899999999918e+00,7.498438399999999605e-06
1.170167500000000027e+00,7.956771400000000219e-06
1.170260099999999914e+00,8.441690899999999600e-06
1.170352700000000024e+00,8.954648200000000138e-06
1.170445299999999911e+00,9.497168799999999790e-06
1.170537900000000020e+00,1.007085500000000067e-05
1.170630499999999907e+00,1.067738999999999977e-05
1.170723100000000017e+00,1.131854100000000063e-05
1.170815699999999904e+00,1.199616400000000030e-05
1.170908300000000013e+00,1.271220699999999916e-05
1.171000899999999900e+00,1.346871600000000076e-05
1.171093500000000009e+00,1.426783400000000052e-05
1.171186099999999897e+00,1.511181399999999985e-05
1.171278599999999948e+00,1.600301599999999952e-05
1.171371200000000057e+00,1.694391599999999927e-05
1.171463799999999944e+00,1.793710999999999876e-05
1.171556400000000053e+00,1.898531799999999853e-05
1.171648999999999941e+00,2.009139399999999902e-05
1.171741600000000050e+00,2.125832399999999837e-05
1.171834199999999937e+00,2.248924000000000086e-05
1.171926800000000046e+00,2.378742099999999940e-05
1.172019399999999933e+00,2.515629999999999833e-05
1.172112000000000043e+00,2.659947300000000119e-05
1.172204599999999930e+00,2.812070199999999875e-05
1.172297200000000039e+00,2.972392699999999897e-05
1.172389799999999926e+00,3.141326700000000269e-05
1.172482400000000036e+00,3.319303500000000127e-05
1.172574999999999923e+00,3.506773999999999910e-05
1.172667600000000032e+00,3.704209500000000199e-05
1.172760100000000083e+00,3.912103200000000122e-05
1.172852699999999970e+00,4.130970200000000071e-05
1.172945300000000080e+00,4.361348999999999771e-05
1.173037899999999967e+00,4.603802400000000101e-05
1.173130500000000076e+00,4.858917900000000149e-05
1.173223099999999963e+00,5.127309599999999777e-05
1.173315700000000072e+00,5.409618299999999902e-05
1.173408299999999960e+00,5.706513199999999769e-05
1.173500900000000069e+00,6.018692800000000130e-05
1.173593499999999956e+00,6.346885900000000605e-05
1.173686100000000065e+00,6.691852999999999506e-05
1.173778699999999953e+00,7.054387300000000010e-05
1.173871300000000062e+00,7.435316100000000496e-05
1.173963899999999949e+00,7.835502000000000591e-05
1.174056500000000058e+00,8.255844100000000443e-05
1.174149099999999946e+00,8.697279699999999351e-05
1.174241599999999996e+00,9.160785200000000296e-05
1.174334200000000106e+00,9.647378200000000196e-05
1.174426799999999993e+00,1.015811800000000011e-04
1.174519400000000102e+00,1.069410899999999977e-04
1.174611999999999989e+00,1.125649900000000032e-04
1.174704600000000099e+00,1.184648500000000013e-04
1.174797199999999986e+00,1.246531199999999955e-04
1.174889800000000095e+00,1.311427300000000094e-04
1.174982399999999982e+00,1.379471699999999974e-04
1.175075000000000092e+00,1.450804599999999916e-04
1.175167599999999979e+00,1.525571400000000062e-04
1.175260200000000088e+00,1.603923899999999919e-04
1.175352799999999975e+00,1.686019299999999912e-04
1.175445400000000085e+00,1.772021400000000117e-04
1.175537999999999972e+00,1.862099999999999942e-04
1.175630600000000081e+00,1.956431799999999960e-04
1.175723099999999910e+00,2.055199999999999974e-04
1.175815700000000019e+00,2.158595099999999895e-04
1.175908299999999906e+00,2.266814699999999993e-04
1.176000900000000016e+00,2.380063900000000115e-04
1.176093499999999903e+00,2.498555400000000096e-04
1.176186100000000012e+00,2.622510099999999806e-04
1.176278699999999899e+00,2.752157000000000084e-04
1.176371300000000009e+00,2.887733300000000177e-04
1.176463899999999896e+00,3.029485299999999832e-04
1.176556500000000005e+00,3.177668200000000097e-04
1.176649099999999892e+00,3.332546100000000067e-04
1.176741700000000002e+00,3.494393100000000077e-04
1.176834300000000111e+00,3.663492900000000054e-04
1.176926899999999998e+00,3.840139099999999935e-04
1.177019500000000107e+00,4.024636099999999873e-04
1.177112099999999995e+00,4.217298499999999921e-04
1.177204700000000104e+00,4.418452400000000258e-04
1.177297199999999933e+00,4.628434799999999794e-04
1.177389800000000042e+00,4.847594400000000020e-04
1.177482399999999929e+00,5.076291900000000010e-04
1.177575000000000038e+00,5.314900300000000109e-04
1.177667599999999926e+00,5.563804899999999758e-04
1.177760200000000035e+00,5.823404300000000009e-04
1.177852799999999922e+00,6.094110099999999839e-04
1.177945400000000031e+00,6.376347599999999862e-04
1.178037999999999919e+00,6.670555899999999760e-04
1.178130600000000028e+00,6.977188700000000509e-04
1.178223199999999915e+00,7.296714099999999752e-04
1.178315800000000024e+00,7.629615400000000535e-04
1.178408399999999912e+00,7.976391200000000061e-04
1.178501000000000021e+00,8.337555899999999623e-04
1.178593599999999908e+00,8.713640099999999744e-04
1.178686200000000017e+00,9.105190900000000075e-04
1.178778700000000068e+00,9.512772200000000353e-04
1.178871299999999955e+00,9.936965600000000065e-04
1.178963900000000065e+00,1.037837000000000004e-03
1.179056499999999952e+00,1.083760200000000087e-03
1.179149100000000061e+00,1.131529800000000098e-03
1.179241699999999948e+00,1.181211300000000039e-03
1.179334300000000058e+00,1.232871900000000057e-03
1.179426899999999945e+00,1.286581100000000000e-03
1.179519500000000054e+00,1.342410199999999896e-03
1.179612099999999941e+00,1.400432700000000088e-03
1.179704700000000051e+00,1.460724000000000050e-03
1.179797299999999938e+00,1.523361800000000042e-03
