#wavelength,transmission
8.510099599999999542e-01,1.094775600000000063e-10
8.510792499999999539e-01,1.167713499999999920e-10
8.511485399999999535e-01,1.245389300000000064e-10
8.512178299999999531e-01,1.328104600000000116e-10
8.512871199999999527e-01,1.416175899999999897e-10
8.513564099999999524e-01,1.509941000000000018e-10
8.514256999999999520e-01,1.609758899999999889e-10
8.514949899999999516e-01,1.716009599999999926e-10
8.515642799999999513e-01,1.829095599999999964e-10
8.516335699999999509e-01,1.949445999999999939e-10
8.517028599999999505e-01,2.077513899999999945e-10
8.517721499999999502e-01,2.213781300000000084e-10
8.518414399999999498e-01,2.358757799999999847e-10
8.519107299999999494e-01,2.512985599999999967e-10
8.519800199999999490e-01,2.677038500000000030e-10
8.520493099999999487e-01,2.851525900000000012e-10
8.521185999999999483e-01,3.037091999999999814e-10
8.521878899999999479e-01,3.234421499999999841e-10
8.522571799999999476e-01,3.444238500000000234e-10
8.523264699999999472e-01,3.667312199999999900e-10
8.523957599999999468e-01,3.904455500000000094e-10
8.524650499999999465e-01,4.156531499999999772e-10
8.525343399999999461e-01,4.424454500000000047e-10
8.526036299999999457e-01,4.709192099999999583e-10
8.526729199999999453e-01,5.011769100000000078e-10
8.527422099999999450e-01,5.333272100000000389e-10
8.528114999999999446e-01,5.674851100000000043e-10
8.528807900000000553e-01,6.037722699999999528e-10
8.529500700000000046e-01,6.423177399999999732e-10
8.530193600000000043e-01,6.832579000000000296e-10
8.530886500000000039e-01,7.267373499999999978e-10
8.531579400000000035e-01,7.729089099999999748e-10
8.532272300000000032e-01,8.219344700000000331e-10
8.532965200000000028e-01,8.739852700000000205e-10
8.533658100000000024e-01,9.292424999999999579e-10
8.534351000000000020e-01,9.878978899999999795e-10
8.535043900000000017e-01,1.050154300000000066e-09
8.535736800000000013e-01,1.116226200000000010e-09
8.536429700000000009e-01,1.186340500000000015e-09
8.537122600000000006e-01,1.260737200000000071e-09
8.537815500000000002e-01,1.339669999999999986e-09
8.538508399999999998e-01,1.423407299999999914e-09
8.539201299999999994e-01,1.512232500000000030e-09
8.539894199999999991e-01,1.606445700000000046e-09
8.540587099999999987e-01,1.706363599999999999e-09
8.541279999999999983e-01,1.812321300000000004e-09
8.541972899999999980e-01,1.924672700000000171e-09
8.542665799999999976e-01,2.043791899999999811e-09
8.543358699999999972e-01,2.170073900000000140e-09
8.544051599999999969e-01,2.303936399999999894e-09
8.544744499999999965e-01,2.445820200000000206e-09
8.545437399999999961e-01,2.596191099999999840e-09
8.546130299999999957e-01,2.755541100000000122e-09
8.546823199999999954e-01,2.924389499999999913e-09
8.547516099999999950e-01,3.103284899999999969e-09
8.548208999999999946e-01,3.292806500000000048e-09
8.548901800000000550e-01,3.493565300000000118e-09
8.549594700000000547e-01,3.706206599999999914e-09
8.550287600000000543e-01,3.931411600000000275e-09
8.550980500000000539e-01,4.169898800000000283e-09
8.551673400000000536e-01,4.422426800000000220e-09
8.552366300000000532e-01,4.689795500000000300e-09
8.553059200000000528e-01,4.972849200000000000e-09
8.553752100000000524e-01,5.272478400000000291e-09
8.554445000000000521e-01,5.589622400000000329e-09
8.555137900000000517e-01,5.925271599999999840e-09
8.555830800000000513e-01,6.280470900000000210e-09
8.556523700000000510e-01,6.656321500000000091e-09
8.557216600000000506e-01,7.053984899999999986e-09
8.557909500000000502e-01,7.474685499999999768e-09
8.558602400000000499e-01,7.919713500000000436e-09
8.559295300000000495e-01,8.390429300000000549e-09
8.559988200000000491e-01,8.888266200000000398e-09
8.560681100000000487e-01,9.414734900000000131e-09
8.561374000000000484e-01,9.971426800000000807e-09
8.562066900000000480e-01,1.056001899999999937e-08
8.562759800000000476e-01,1.118227699999999943e-08
8.563452700000000473e-01,1.184006300000000070e-08
8.564145600000000469e-01,1.253533500000000033e-08
8.564838500000000465e-01,1.327015699999999947e-08
8.565531400000000462e-01,1.404670199999999929e-08
8.566224300000000458e-01,1.486725799999999957e-08
8.566917200000000454e-01,1.573423399999999896e-08
8.567609999999999948e-01,1.665016399999999954e-08
8.568302899999999944e-01,1.761771699999999846e-08
8.568995799999999941e-01,1.863970200000000111e-08
8.569688699999999937e-01,1.971907399999999985e-08
8.570381599999999933e-01,2.085894199999999975e-08
8.571074499999999929e-01,2.206257800000000157e-08
8.571767399999999926e-01,2.333342400000000071e-08
8.572460299999999922e-01,2.467509999999999971e-08
8.573153199999999918e-01,2.609141300000000113e-08
8.573846099999999915e-01,2.758636700000000084e-08
8.574538999999999911e-01,2.916417300000000117e-08
8.575231899999999907e-01,3.082925699999999687e-08
8.575924799999999903e-01,3.258627399999999942e-08
8.576617699999999900e-01,3.444011599999999994e-08
8.577310599999999896e-01,3.639592500000000302e-08
8.578003499999999892e-01,3.845910499999999755e-08
8.578696399999999889e-01,4.063533499999999718e-08
8.579389299999999885e-01,4.293058400000000214e-08
8.580082199999999881e-01,4.535111999999999879e-08
8.580775099999999878e-01,4.790352900000000207e-08
8.581467999999999874e-01,5.059472999999999740e-08
8.582160899999999870e-01,5.343198899999999810e-08
8.582853799999999866e-01,5.642293600000000117e-08
8.583546699999999863e-01,5.957558599999999731e-08
8.584239599999999859e-01,6.289834999999999756e-08
8.584932499999999855e-01,6.640006199999999892e-08
8.585625399999999852e-01,7.008999400000000565e-08
8.586318299999999848e-01,7.397787799999999661e-08
8.587011100000000452e-01,7.807392800000000502e-08
8.587704000000000448e-01,8.238886099999999616e-08
8.588396900000000445e-01,8.693392700000000264e-08
8.589089800000000441e-01,9.172092300000000314e-08
8.589782700000000437e-01,9.676222900000000004e-08
8.590475600000000433e-01,1.020708300000000066e-07
8.591168500000000430e-01,1.076603400000000017e-07
8.591861400000000426e-01,1.135450599999999946e-07
8.592554300000000422e-01,1.197399400000000062e-07
8.593247200000000419e-01,1.262606999999999919e-07
8.593940100000000415e-01,1.331238000000000105e-07
8.594633000000000411e-01,1.403464999999999922e-07
8.595325900000000408e-01,1.479468800000000093e-07
8.596018800000000404e-01,1.559439100000000011e-07
8.596711700000000400e-01,1.643574500000000117e-07
8.597404600000000396e-01,1.732083199999999944e-07
8.598097500000000393e-01,1.825183199999999898e-07
8.598790400000000389e-01,1.923103200000000023e-07
8.599483300000000385e-01,2.026082400000000072e-07
8.600176200000000382e-01,2.134371400000000122e-07
8.600869100000000378e-01,2.248232899999999941e-07
8.601562000000000374e-01,2.367941700000000039e-07
8.602254900000000370e-01,2.493785599999999913e-07
8.602947800000000367e-01,2.626065999999999952e-07
8.603640700000000363e-01,2.765098299999999978e-07
8.604333600000000359e-01,2.911212800000000132e-07
8.605026500000000356e-01,3.064754799999999906e-07
8.605719400000000352e-01,3.226086099999999887e-07
8.606412199999999846e-01,3.395585099999999994e-07
8.607105099999999842e-01,3.573647499999999906e-07
8.607797999999999838e-01,3.760687600000000070e-07
8.608490899999999835e-01,3.957138499999999776e-07
8.609183799999999831e-01,4.163453399999999762e-07
8.609876699999999827e-01,4.380105900000000120e-07
8.610569599999999824e-01,4.607591700000000113e-07
8.611262499999999820e-01,4.846428699999999593e-07
8.611955399999999816e-01,5.097158600000000047e-07
8.612648299999999812e-01,5.360347499999999884e-07
8.613341199999999809e-01,5.636587100000000383e-07
8.614034099999999805e-01,5.926495999999999814e-07
8.614726999999999801e-01,6.230720299999999855e-07
8.615419899999999798e-01,6.549935499999999776e-07
8.616112799999999794e-01,6.884846900000000010e-07
8.616805699999999790e-01,7.236191799999999542e-07
8.617498599999999787e-01,7.604739800000000176e-07
8.618191499999999783e-01,7.991295100000000056e-07
8.618884399999999779e-01,8.396697400000000105e-07
8.619577299999999775e-01,8.821823500000000300e-07
8.620270199999999772e-01,9.267588999999999488e-07
8.620963099999999768e-01,9.734949499999999738e-07
8.621655999999999764e-01,1.022490299999999916e-06
8.622348899999999761e-01,1.073849000000000076e-06
8.623041799999999757e-01,1.127679800000000013e-06
8.623734699999999753e-01,1.184096100000000062e-06
8.624427599999999750e-01,1.243216300000000062e-06
8.625120499999999746e-01,1.305163599999999899e-06
8.625813300000000350e-01,1.370067099999999895e-06
8.626506200000000346e-01,1.438060900000000089e-06
8.627199100000000342e-01,1.509285199999999989e-06
8.627892000000000339e-01,1.583886099999999965e-06
8.628584900000000335e-01,1.662015900000000006e-06
8.629277800000000331e-01,1.743833499999999903e-06
8.629970700000000328e-01,1.829504400000000096e-06
8.630663600000000324e-01,1.919201199999999886e-06
8.631356500000000320e-01,2.013103900000000006e-06
8.632049400000000317e-01,2.111399899999999869e-06
8.632742300000000313e-01,2.214284499999999806e-06
8.633435200000000309e-01,2.321961400000000123e-06
8.634128100000000305e-01,2.434642599999999897e-06
8.634821000000000302e-01,2.552548999999999996e-06
8.635513900000000298e-01,2.675910599999999990e-06
8.636206800000000294e-01,2.804967199999999852e-06
8.636899700000000291e-01,2.939968200000000069e-06
8.637592600000000287e-01,3.081173499999999833e-06
8.638285500000000283e-01,3.228853699999999880e-06
8.638978400000000279e-01,3.383290199999999888e-06
8.639671300000000276e-01,3.544776199999999988e-06
8.640364200000000272e-01,3.713616799999999857e-06
8.641057100000000268e-01,3.890129500000000106e-06
8.641750000000000265e-01,4.074644699999999860e-06
8.642442900000000261e-01,4.267505999999999965e-06
8.643135800000000257e-01,4.469070999999999957e-06
8.643828700000000254e-01,4.679711600000000001e-06
8.644521499999999747e-01,4.899814800000000405e-06
8.645214399999999744e-01,5.129782799999999860e-06
8.645907299999999740e-01,5.370033999999999923e-06
8.646600199999999736e-01,5.621003299999999742e-06
8.647293099999999733e-01,5.883142999999999756e-06
8.647985999999999729e-01,6.156923199999999748e-06
8.648678899999999725e-01,6.442832400000000178e-06
8.649371799999999721e-01,6.741378499999999884e-06
8.650064699999999718e-01,7.053089000000000193e-06
8.650757599999999714e-01,7.378512399999999832e-06
8.651450499999999710e-01,7.718218199999999171e-06
8.652143399999999707e-01,8.072798199999999425e-06
8.652836299999999703e-01,8.442866999999999814e-06
8.653529199999999699e-01,8.829063000000000343e-06
8.654222099999999696e-01,9.232049099999999680e-06
8.654914999999999692e-01,9.652513599999999692e-06
8.655607899999999688e-01,1.009117099999999988e-05
8.656300799999999684e-01,1.054876399999999955e-05
8.656993699999999681e-01,1.102606200000000041e-05
8.657686599999999677e-01,1.152386399999999975e-05
8.658379499999999673e-01,1.204299900000000033e-05
8.659072399999999670e-01,1.258432999999999950e-05
8.659765299999999666e-01,1.314874799999999963e-05
8.660458199999999662e-01,1.373717999999999982e-05
8.661151099999999659e-01,1.435058700000000057e-05
8.661843999999999655e-01,1.498996499999999972e-05
8.662536899999999651e-01,1.565634899999999852e-05
8.663229799999999647e-01,1.635081099999999947e-05
8.663922600000000251e-01,1.707446100000000057e-05
8.664615500000000248e-01,1.782845099999999977e-05
8.665308400000000244e-01,1.861397699999999873e-05
8.666001300000000240e-01,1.943227600000000131e-05
8.666694200000000237e-01,2.028463199999999976e-05
8.667387100000000233e-01,2.117237200000000085e-05
8.668080000000000229e-01,2.209687599999999948e-05
8.668772900000000226e-01,2.305956999999999986e-05
8.669465800000000222e-01,2.406193300000000109e-05
8.670158700000000218e-01,2.510549499999999840e-05
8.670851600000000214e-01,2.619184399999999920e-05
8.671544500000000211e-01,2.732261999999999964e-05
8.672237400000000207e-01,2.849952499999999883e-05
8.672930300000000203e-01,2.972431900000000132e-05
8.673623200000000200e-01,3.099882500000000047e-05
8.674316100000000196e-01,3.232492800000000277e-05
8.675009000000000192e-01,3.370458199999999991e-05
8.675701900000000188e-01,3.513980699999999768e-05
8.676394800000000185e-01,3.663269199999999719e-05
8.677087700000000181e-01,3.818540200000000083e-05
8.677780600000000177e-01,3.980017400000000110e-05
8.678473500000000174e-01,4.147932099999999852e-05
8.679166400000000170e-01,4.322523900000000080e-05
8.679859300000000166e-01,4.504040099999999933e-05
8.680552200000000163e-01,4.692736799999999979e-05
8.681245100000000159e-01,4.888878600000000027e-05
8.681938000000000155e-01,5.092739000000000234e-05
8.682630900000000151e-01,5.304600899999999792e-05
8.683323699999999645e-01,5.524756399999999754e-05
8.684016599999999642e-01,5.753507700000000120e-05
8.684709499999999638e-01,5.991166799999999676e-05
8.685402399999999634e-01,6.238056199999999975e-05
8.686095299999999630e-01,6.494508900000000597e-05
8.686788199999999627e-01,6.760869099999999735e-05
8.687481099999999623e-01,7.037491999999999739e-05
8.688173999999999619e-01,7.324744799999999734e-05
8.688866899999999616e-01,7.623006200000000327e-05
8.689559799999999612e-01,7.932667699999999768e-05
8.690252699999999608e-01,8.254133100000000012e-05
8.690945599999999605e-01,8.587819199999999860e-05
8.691638499999999601e-01,8.934156500000000288e-05
8.692331399999999597e-01,9.293588999999999832e-05
8.693024299999999593e-01,9.666574800000000316e-05
8.693717199999999590e-01,1.005358700000000055e-04
8.694410099999999586e-01,1.045511300000000047e-04
8.695102999999999582e-01,1.087165600000000059e-04
8.695795899999999579e-01,1.130373400000000056e-04
8.696488799999999575e-01,1.175188399999999998e-04
8.697181699999999571e-01,1.221665600000000076e-04
8.697874599999999568e-01,1.269861899999999932e-04
8.698567499999999564e-01,1.319836099999999884e-04
8.699260399999999560e-01,1.371648499999999951e-04
8.699953299999999556e-01,1.425361400000000017e-04
8.700646199999999553e-01,1.481039100000000109e-04
8.701339099999999549e-01,1.538747599999999965e-04
8.702031999999999545e-01,1.598555199999999890e-04
8.702724800000000149e-01,1.660532099999999917e-04
8.703417700000000146e-01,1.724750600000000088e-04
8.704110600000000142e-01,1.791285200000000059e-04
8.704803500000000138e-01,1.860212500000000039e-04
8.705496400000000135e-01,1.931611699999999875e-04
8.706189300000000131e-01,2.005563899999999956e-04
8.706882200000000127e-01,2.082153000000000053e-04
8.707575100000000123e-01,2.161464999999999947e-04
8.708268000000000120e-01,2.243588699999999887e-04
8.708960900000000116e-01,2.328615199999999876e-04
8.709653800000000112e-01,2.416638600000000129e-04
8.710346700000000109e-01,2.507755499999999812e-04
8.711039600000000105e-01,2.602065099999999903e-04
8.711732500000000101e-01,2.699669699999999832e-04
8.712425400000000097e-01,2.800674499999999912e-04
8.713118300000000094e-01,2.905187500000000109e-04
8.713811200000000090e-01,3.013319900000000070e-04
8.714504100000000086e-01,3.125186000000000066e-04
8.715197000000000083e-01,3.240903199999999908e-04
8.715889900000000079e-01,3.360592299999999913e-04
8.716582800000000075e-01,3.484377199999999942e-04
8.717275700000000072e-01,3.612385699999999989e-04
8.717968600000000068e-01,3.744748499999999846e-04
8.718661500000000064e-01,3.881600400000000269e-04
8.719354400000000060e-01,4.023079500000000214e-04
8.720047300000000057e-01,4.169327799999999855e-04
8.720740200000000053e-01,4.320491099999999906e-04
8.721432999999999547e-01,4.476719199999999732e-04
8.722125899999999543e-01,4.638165799999999922e-04
8.722818799999999539e-01,4.804988600000000259e-04
8.723511699999999536e-01,4.977349700000000291e-04
8.724204599999999532e-01,5.155415199999999849e-04
8.724897499999999528e-01,5.339355799999999895e-04
8.725590399999999525e-01,5.529346399999999790e-04
8.726283299999999521e-01,5.725566799999999915e-04
8.726976199999999517e-01,5.928201000000000130e-04
8.727669099999999514e-01,6.137437999999999835e-04
8.728361999999999510e-01,6.353471599999999846e-04
8.729054899999999506e-01,6.576500499999999834e-04
8.729747799999999502e-01,6.806728400000000090e-04
8.730440699999999499e-01,7.044364100000000042e-04
8.731133599999999495e-01,7.289621800000000307e-04
8.731826499999999491e-01,7.542720799999999559e-04
8.732519399999999488e-01,7.803886000000000113e-04
8.733212299999999484e-01,8.073347700000000054e-04
8.733905199999999480e-01,8.351342099999999914e-04
8.734598099999999476e-01,8.638110999999999533e-04
8.735290999999999473e-01,8.933901899999999825e-04
8.735983899999999469e-01,9.238968600000000385e-04
8.736676799999999465e-01,9.553570800000000000e-04
8.737369699999999462e-01,9.877974400000000873e-04
8.738062599999999458e-01,1.021245199999999903e-03
8.738755499999999454e-01,1.055728099999999952e-03
8.739448399999999451e-01,1.091274900000000023e-03
8.740141299999999447e-01,1.127914600000000031e-03
8.740834100000000051e-01,1.165677099999999980e-03
8.741527000000000047e-01,1.204592900000000079e-03
8.742219900000000044e-01,1.244693399999999978e-03
8.742912800000000040e-01,1.286010499999999928e-03
8.743605700000000036e-01,1.328577000000000057e-03
8.744298600000000032e-01,1.372426099999999975e-03
8.744991500000000029e-01,1.417592199999999922e-03
8.745684400000000025e-01,1.464110100000000055e-03
8.746377300000000021e-01,1.512015600000000005e-03
8.747070200000000018e-01,1.561345200000000075e-03
8.747763100000000014e-01,1.612136199999999976e-03
8.748456000000000010e-01,1.664426699999999905e-03
8.749148900000000006e-01,1.718255699999999934e-03
8.749841800000000003e-01,1.773662899999999942e-03
8.750534699999999999e-01,1.830688999999999927e-03
8.751227599999999995e-01,1.889375499999999949e-03
8.751920499999999992e-01,1.949764600000000086e-03
8.752613399999999988e-01,2.011899799999999992e-03
8.753306299999999984e-01,2.075825099999999927e-03
8.753999199999999981e-01,2.141585599999999874e-03
8.754692099999999977e-01,2.209227199999999874e-03
8.755384999999999973e-01,2.278796999999999941e-03
8.756077899999999969e-01,2.350342799999999895e-03
8.756770799999999966e-01,2.423913399999999899e-03
8.757463699999999962e-01,2.499558600000000019e-03
8.758156599999999958e-01,2.577329299999999834e-03
8.758849499999999955e-01,2.657277300000000092e-03
8.759542399999999951e-01,2.739455300000000117e-03
8.760235200000000555e-01,2.823917300000000109e-03
8.760928100000000551e-01,2.910718100000000107e-03
8.761621000000000548e-01,2.999913600000000090e-03
8.762313900000000544e-01,3.091560900000000014e-03
8.763006800000000540e-01,3.185718000000000143e-03
8.763699700000000536e-01,3.282444099999999847e-03
8.764392600000000533e-01,3.381799400000000139e-03
8.765085500000000529e-01,3.483845299999999839e-03
8.765778400000000525e-01,3.588644299999999877e-03
8.766471300000000522e-01,3.696259999999999823e-03
8.767164200000000518e-01,3.806757200000000091e-03
8.767857100000000514e-01,3.920201699999999699e-03
8.768550000000000511e-01,4.036660800000000347e-03
8.769242900000000507e-01,4.156202700000000139e-03
8.769935800000000503e-01,4.278896800000000188e-03
8.770628700000000499e-01,4.404813700000000283e-03
8.771321600000000496e-01,4.534025399999999824e-03
8.772014500000000492e-01,4.666604999999999885e-03
8.772707400000000488e-01,4.802626699999999749e-03
8.773400300000000485e-01,4.942166100000000041e-03
8.774093200000000481e-01,5.085300000000000063e-03
8.774786100000000477e-01,5.232106499999999993e-03
8.775479000000000473e-01,5.382664900000000419e-03
8.776171900000000470e-01,5.537055899999999801e-03
8.776864800000000466e-01,5.695361200000000415e-03
8.777557700000000462e-01,5.857664099999999874e-03
8.778250600000000459e-01,6.024049099999999671e-03
8.778943399999999952e-01,6.194601899999999974e-03
8.779636299999999949e-01,6.369409599999999692e-03
8.780329199999999945e-01,6.548560699999999950e-03
8.781022099999999941e-01,6.732145000000000143e-03
8.781714999999999938e-01,6.920253399999999611e-03
8.782407899999999934e-01,7.112978399999999972e-03
8.783100799999999930e-01,7.310413800000000253e-03
8.783793699999999927e-01,7.512654599999999891e-03
8.784486599999999923e-01,7.719797399999999733e-03
8.785179499999999919e-01,7.931939900000000571e-03
8.785872399999999915e-01,8.149181300000000669e-03
