#wavelength,transmission
7.701650300000000282e-01,4.791794999999999995e-09
7.703032800000000346e-01,5.385297699999999685e-09
7.704415300000000411e-01,6.049988500000000051e-09
7.705797899999999867e-01,6.794112599999999818e-09
7.707180399999999931e-01,7.626834499999999591e-09
7.708563000000000498e-01,8.558335900000000801e-09
7.709945499999999452e-01,9.599923600000000397e-09
7.711328100000000019e-01,1.076414900000000081e-08
7.712710600000000083e-01,1.206493899999999959e-08
7.714093100000000147e-01,1.351774000000000051e-08
7.715475699999999604e-01,1.513967600000000119e-08
7.716858199999999668e-01,1.694972600000000157e-08
7.718240800000000235e-01,1.896891100000000073e-08
7.719623300000000299e-01,2.122050800000000056e-08
7.721005800000000363e-01,2.373027700000000036e-08
7.722388399999999820e-01,2.652671999999999998e-08
7.723770899999999884e-01,2.964135300000000055e-08
7.725153500000000450e-01,3.310901600000000068e-08
7.726536000000000515e-01,3.696820000000000144e-08
7.727918499999999469e-01,4.126142099999999989e-08
7.729301100000000035e-01,4.603560999999999753e-08
7.730683600000000100e-01,5.134255999999999729e-08
7.732066199999999556e-01,5.723939800000000169e-08
7.733448699999999620e-01,6.378911099999999533e-08
7.734831300000000187e-01,7.106111700000000439e-08
7.736213800000000251e-01,7.913188699999999719e-08
7.737596300000000316e-01,8.808563099999999695e-08
7.738978899999999772e-01,9.801503600000000605e-08
7.740361399999999836e-01,1.090220799999999942e-07
7.741744000000000403e-01,1.212189000000000029e-07
7.743126500000000467e-01,1.347288000000000040e-07
7.744509000000000531e-01,1.496872299999999962e-07
7.745891599999999988e-01,1.662429799999999954e-07
7.747274100000000052e-01,1.845594000000000002e-07
7.748656699999999509e-01,2.048157499999999922e-07
7.750039199999999573e-01,2.272086700000000006e-07
7.751421699999999637e-01,2.519537499999999740e-07
7.752804300000000204e-01,2.792873099999999910e-07
7.754186800000000268e-01,3.094682199999999796e-07
7.755569399999999725e-01,3.427799399999999970e-07
7.756951899999999789e-01,3.795327900000000203e-07
7.758334500000000356e-01,4.200662399999999947e-07
7.759717000000000420e-01,4.647515900000000263e-07
7.761099500000000484e-01,5.139947000000000147e-07
7.762482099999999940e-01,5.682390900000000456e-07
7.763864600000000005e-01,6.279691400000000345e-07
7.765247199999999461e-01,6.937137099999999942e-07
7.766629699999999525e-01,7.660499199999999817e-07
7.768012199999999590e-01,8.456073000000000125e-07
7.769394800000000156e-01,9.330722500000000389e-07
7.770777300000000221e-01,1.029192899999999898e-06
7.772159899999999677e-01,1.134784100000000051e-06
7.773542399999999741e-01,1.250733300000000036e-06
7.774924899999999806e-01,1.378006599999999991e-06
7.776307500000000372e-01,1.517654599999999945e-06
7.777690000000000436e-01,1.670820400000000050e-06
7.779072599999999893e-01,1.838746199999999951e-06
7.780455099999999957e-01,2.022781799999999977e-06
7.781837700000000524e-01,2.224393300000000088e-06
7.783220199999999478e-01,2.445172199999999852e-06
7.784602699999999542e-01,2.686845500000000142e-06
7.785985300000000109e-01,2.951286399999999811e-06
7.787367800000000173e-01,3.240525800000000137e-06
7.788750399999999630e-01,3.556764599999999892e-06
7.790132899999999694e-01,3.902386899999999600e-06
7.791515399999999758e-01,4.279974000000000232e-06
7.792898000000000325e-01,4.692319699999999837e-06
7.794280500000000389e-01,5.142446299999999913e-06
7.795663099999999845e-01,5.633621800000000035e-06
7.797045599999999910e-01,6.169378500000000109e-06
7.798428099999999974e-01,6.753532500000000378e-06
7.799810700000000541e-01,7.390204900000000398e-06
7.801193199999999495e-01,8.083843899999999162e-06
7.802575800000000061e-01,8.839248900000000784e-06
7.803958300000000126e-01,9.661595899999999909e-06
7.805340899999999582e-01,1.055646399999999949e-05
7.806723399999999646e-01,1.152986599999999983e-05
7.808105899999999711e-01,1.258827600000000043e-05
7.809488500000000277e-01,1.373866500000000037e-05
7.810871000000000342e-01,1.498853400000000024e-05
7.812253599999999798e-01,1.634594899999999951e-05
7.813636099999999862e-01,1.781958400000000086e-05
7.815018599999999926e-01,1.941875999999999837e-05
7.816401200000000493e-01,2.115348700000000112e-05
7.817783699999999447e-01,2.303451399999999940e-05
7.819166300000000014e-01,2.507337600000000054e-05
7.820548800000000078e-01,2.728244600000000072e-05
7.821931300000000142e-01,2.967498999999999894e-05
7.823313899999999599e-01,3.226522600000000183e-05
7.824696399999999663e-01,3.506838400000000078e-05
7.826079000000000230e-01,3.810077100000000018e-05
7.827461500000000294e-01,4.137984000000000258e-05
7.828844099999999750e-01,4.492426099999999946e-05
7.830226599999999815e-01,4.875400000000000111e-05
7.831609099999999879e-01,5.289039099999999971e-05
7.832991700000000446e-01,5.735623000000000023e-05
7.834374200000000510e-01,6.217585600000000178e-05
7.835756799999999966e-01,6.737524700000000020e-05
7.837139300000000031e-01,7.298211699999999349e-05
7.838521800000000095e-01,7.902601900000000399e-05
7.839904399999999551e-01,8.553844999999999754e-05
7.841286899999999616e-01,9.255296700000000280e-05
7.842669500000000182e-01,1.001052999999999985e-04
7.844052000000000247e-01,1.082334899999999990e-04
7.845434500000000311e-01,1.169779800000000025e-04
7.846817099999999767e-01,1.263818099999999974e-04
7.848199599999999831e-01,1.364907099999999982e-04
7.849582200000000398e-01,1.473532599999999879e-04
7.850964700000000462e-01,1.590210399999999970e-04
7.852347299999999919e-01,1.715488100000000073e-04
7.853729799999999983e-01,1.849946600000000033e-04
7.855112300000000047e-01,1.994201799999999972e-04
7.856494899999999504e-01,2.148906599999999894e-04
7.857877399999999568e-01,2.314752500000000061e-04
7.859260000000000135e-01,2.492471699999999923e-04
7.860642500000000199e-01,2.682839400000000042e-04
7.862025000000000263e-01,2.886675400000000033e-04
7.863407599999999720e-01,3.104846599999999961e-04
7.864790099999999784e-01,3.338269100000000079e-04
7.866172700000000351e-01,3.587910599999999915e-04
7.867555200000000415e-01,3.854793099999999947e-04
7.868937700000000479e-01,4.139994600000000235e-04
7.870320299999999936e-01,4.444652700000000130e-04
7.871702800000000000e-01,4.769966399999999752e-04
7.873085399999999456e-01,5.117199299999999678e-04
7.874467899999999521e-01,5.487682299999999905e-04
7.875850500000000087e-01,5.882816400000000050e-04
7.877233000000000152e-01,6.304075899999999569e-04
7.878615500000000216e-01,6.753011099999999987e-04
7.879998099999999672e-01,7.231251799999999577e-04
7.881380599999999736e-01,7.740510299999999811e-04
7.882763200000000303e-01,8.282584600000000158e-04
7.884145700000000367e-01,8.859362099999999567e-04
7.885528200000000432e-01,9.472822599999999654e-04
7.886910799999999888e-01,1.012504200000000076e-03
7.888293299999999952e-01,1.081819599999999911e-03
7.889675900000000519e-01,1.155456399999999937e-03
7.891058399999999473e-01,1.233653199999999988e-03
7.892440899999999537e-01,1.316659499999999925e-03
7.893823500000000104e-01,1.404736499999999916e-03
7.895206000000000168e-01,1.498157300000000063e-03
7.896588599999999625e-01,1.597206799999999942e-03
7.897971099999999689e-01,1.702182900000000091e-03
7.899353700000000256e-01,1.813396400000000025e-03
7.900736200000000320e-01,1.931171499999999926e-03
7.902118700000000384e-01,2.055846100000000096e-03
7.903501299999999841e-01,2.187772499999999891e-03
7.904883799999999905e-01,2.327317399999999890e-03
7.906266400000000472e-01,2.474862699999999787e-03
7.907648900000000536e-01,2.630805600000000154e-03
7.909031399999999490e-01,2.795559100000000012e-03
7.910414000000000057e-01,2.969552400000000005e-03
7.911796500000000121e-01,3.153231399999999966e-03
7.913179099999999577e-01,3.347058700000000216e-03
7.914561599999999641e-01,3.551514500000000144e-03
7.915944200000000208e-01,3.767096699999999965e-03
7.917326700000000272e-01,3.994321200000000398e-03
7.918709200000000337e-01,4.233722300000000195e-03
7.920091799999999793e-01,4.485853300000000252e-03
7.921474299999999857e-01,4.751286300000000067e-03
7.922856900000000424e-01,5.030613199999999820e-03
7.924239400000000488e-01,5.324445300000000235e-03
7.925621900000000553e-01,5.633414199999999851e-03
7.927004500000000009e-01,5.958171600000000158e-03
7.928387000000000073e-01,6.299389800000000129e-03
7.929769599999999530e-01,6.657762000000000228e-03
7.931152099999999594e-01,7.034002099999999737e-03
7.932534599999999658e-01,7.428845600000000098e-03
7.933917200000000225e-01,7.843048800000000306e-03
7.935299700000000289e-01,8.277390100000000389e-03
7.936682299999999746e-01,8.732668799999999260e-03
7.938064799999999810e-01,9.209706499999999532e-03
7.939447400000000377e-01,9.709345899999999308e-03
7.940829900000000441e-01,1.023245199999999952e-02
7.942212400000000505e-01,1.077991099999999966e-02
7.943594999999999962e-01,1.135263100000000018e-02
7.944977500000000026e-01,1.195154099999999955e-02
7.946360099999999482e-01,1.257759299999999976e-02
7.947742599999999547e-01,1.323175799999999971e-02
7.949125099999999611e-01,1.391503000000000011e-02
7.950507700000000177e-01,1.462842299999999977e-02
7.951890200000000242e-01,1.537297099999999916e-02
7.953272799999999698e-01,1.614972799999999861e-02
7.954655299999999762e-01,1.695976899999999954e-02
7.956037799999999827e-01,1.780418699999999910e-02
7.957420400000000393e-01,1.868409399999999831e-02
7.958802900000000458e-01,1.960061999999999915e-02
7.960185499999999914e-01,2.055491400000000052e-02
7.961567999999999978e-01,2.154814000000000035e-02
7.962950600000000545e-01,2.258147900000000152e-02
7.964333099999999499e-01,2.365612799999999849e-02
7.965715599999999563e-01,2.477329699999999968e-02
7.967098200000000130e-01,2.593421300000000110e-02
7.968480700000000194e-01,2.714011100000000148e-02
7.969863299999999651e-01,2.839224300000000104e-02
7.971245799999999715e-01,2.969186799999999973e-02
7.972628299999999779e-01,3.104025599999999871e-02
7.974010900000000346e-01,3.243868500000000182e-02
7.975393400000000410e-01,3.388844199999999779e-02
7.976775999999999867e-01,3.539081799999999750e-02
7.978158499999999931e-01,3.694710999999999829e-02
7.979540999999999995e-01,3.855861700000000336e-02
7.980923599999999452e-01,4.022664100000000048e-02
7.982306099999999516e-01,4.195248399999999822e-02
7.983688700000000082e-01,4.373744599999999927e-02
7.985071200000000147e-01,4.558282599999999990e-02
7.986453799999999603e-01,4.748991600000000007e-02
7.987836299999999667e-01,4.946000400000000186e-02
7.989218799999999732e-01,5.149436999999999764e-02
7.990601400000000298e-01,5.359428200000000003e-02
7.991983900000000363e-01,5.576099799999999912e-02
7.993366499999999819e-01,5.799576399999999826e-02
7.994748999999999883e-01,6.029980699999999694e-02
7.996131499999999948e-01,6.267434099999999453e-02
7.997514100000000514e-01,6.512055599999999611e-02
7.998896599999999468e-01,6.763962499999999489e-02
8.000279200000000035e-01,7.023269599999999724e-02
8.001661700000000099e-01,7.290088899999999650e-02
8.003044200000000163e-01,7.564530099999999813e-02
8.004426799999999620e-01,7.846699599999999719e-02
8.005809299999999684e-01,8.136700800000000455e-02
8.007191900000000251e-01,8.434633499999999451e-02
8.008574400000000315e-01,8.740594200000000036e-02
8.009956999999999772e-01,9.054675399999999319e-02
8.011339499999999836e-01,9.376965600000000678e-02
8.012721999999999900e-01,9.707549000000000039e-02
8.014104600000000467e-01,1.004650500000000002e-01
8.015487100000000531e-01,1.039391000000000065e-01
8.016869699999999987e-01,1.074983300000000030e-01
8.018252200000000052e-01,1.111434000000000033e-01
8.019634700000000116e-01,1.148749000000000020e-01
8.021017299999999572e-01,1.186933899999999958e-01
8.022399799999999637e-01,1.225993499999999958e-01
8.023782400000000203e-01,1.265931999999999891e-01
8.025164900000000268e-01,1.306753200000000115e-01
8.026547400000000332e-01,1.348460200000000109e-01
8.027929999999999788e-01,1.391055300000000050e-01
8.029312499999999853e-01,1.434540400000000049e-01
8.030695100000000419e-01,1.478916600000000081e-01
8.032077600000000484e-01,1.524184199999999989e-01
8.033460199999999940e-01,1.570343100000000103e-01
8.034842700000000004e-01,1.617392099999999944e-01
8.036225200000000068e-01,1.665329600000000076e-01
8.037607799999999525e-01,1.714153099999999874e-01
8.038990299999999589e-01,1.763859399999999911e-01
8.040372900000000156e-01,1.814444500000000071e-01
8.041755400000000220e-01,1.865903700000000054e-01
8.043137900000000284e-01,1.918231400000000031e-01
8.044520499999999741e-01,1.971421399999999935e-01
8.045902999999999805e-01,2.025466499999999948e-01
8.047285600000000372e-01,2.080358999999999958e-01
8.048668100000000436e-01,2.136089899999999986e-01
8.050050600000000500e-01,2.192649999999999877e-01
8.051433199999999957e-01,2.250029000000000057e-01
8.052815700000000021e-01,2.308215600000000089e-01
8.054198299999999477e-01,2.367198199999999975e-01
8.055580799999999542e-01,2.426963900000000118e-01
8.056963400000000108e-01,2.487499400000000027e-01
8.058345900000000173e-01,2.548790400000000012e-01
8.059728400000000237e-01,2.610821799999999970e-01
8.061110999999999693e-01,2.673577999999999788e-01
8.062493499999999758e-01,2.737042299999999928e-01
8.063876100000000324e-01,2.801197400000000060e-01
8.065258600000000389e-01,2.866025400000000167e-01
8.066641100000000453e-01,2.931507400000000207e-01
8.068023699999999909e-01,2.997624099999999792e-01
8.069406199999999973e-01,3.064355200000000168e-01
8.070788800000000540e-01,3.131679900000000072e-01
8.072171299999999494e-01,3.199576800000000221e-01
8.073553799999999558e-01,3.268023700000000087e-01
8.074936400000000125e-01,3.336997999999999909e-01
8.076318900000000189e-01,3.406476199999999843e-01
8.077701499999999646e-01,3.476434500000000205e-01
8.079083999999999710e-01,3.546848499999999960e-01
8.080466600000000277e-01,3.617693200000000053e-01
8.081849100000000341e-01,3.688943199999999978e-01
8.083231600000000405e-01,3.760572500000000096e-01
8.084614199999999862e-01,3.832554899999999765e-01
8.085996699999999926e-01,3.904863499999999821e-01
8.087379300000000493e-01,3.977471100000000148e-01
8.088761799999999447e-01,4.050350400000000128e-01
8.090144299999999511e-01,4.123473500000000014e-01
8.091526900000000078e-01,4.196812400000000109e-01
8.092909400000000142e-01,4.270338599999999873e-01
8.094291999999999598e-01,4.344023599999999874e-01
8.095674499999999663e-01,4.417838700000000229e-01
8.097056999999999727e-01,4.491755000000000053e-01
8.098439600000000294e-01,4.565743400000000229e-01
8.099822100000000358e-01,4.639774899999999924e-01
8.101204699999999814e-01,4.713820200000000127e-01
8.102587199999999878e-01,4.787850200000000056e-01
8.103969800000000445e-01,4.861835800000000041e-01
8.105352300000000509e-01,4.935747899999999855e-01
8.106734799999999463e-01,5.009557300000000435e-01
8.108117400000000030e-01,5.083235299999999679e-01
8.109499900000000094e-01,5.156753099999999979e-01
8.110882499999999551e-01,5.230082099999999734e-01
8.112264999999999615e-01,5.303193999999999964e-01
8.113647499999999679e-01,5.376060799999999862e-01
8.115030100000000246e-01,5.448654499999999734e-01
8.116412600000000310e-01,5.520947899999999464e-01
8.117795199999999767e-01,5.592913699999999544e-01
8.119177699999999831e-01,5.664525200000000149e-01
8.120560300000000398e-01,5.735756100000000135e-01
8.121942800000000462e-01,5.806580500000000367e-01
8.123325300000000526e-01,5.876972900000000388e-01
8.124707899999999983e-01,5.946908499999999931e-01
8.126090400000000047e-01,6.016362800000000233e-01
8.127472999999999503e-01,6.085312000000000499e-01
8.128855499999999568e-01,6.153732800000000225e-01
8.130237999999999632e-01,6.221602400000000310e-01
8.131620600000000199e-01,6.288898800000000122e-01
8.133003100000000263e-01,6.355600500000000430e-01
8.134385699999999719e-01,6.421686800000000472e-01
8.135768199999999784e-01,6.487137499999999779e-01
8.137150699999999848e-01,6.551933300000000182e-01
8.138533300000000414e-01,6.616055299999999972e-01
8.139915800000000479e-01,6.679485600000000245e-01
8.141298399999999935e-01,6.742206899999999559e-01
8.142680899999999999e-01,6.804202799999999884e-01
8.144063499999999456e-01,6.865457499999999547e-01
8.145445999999999520e-01,6.925955900000000387e-01
8.146828499999999584e-01,6.985683900000000390e-01
8.148211100000000151e-01,7.044628099999999948e-01
8.149593600000000215e-01,7.102775799999999640e-01
8.150976199999999672e-01,7.160115200000000124e-01
8.152358699999999736e-01,7.216635300000000530e-01
8.153741199999999800e-01,7.272325800000000173e-01
8.155123800000000367e-01,7.327177299999999560e-01
8.156506300000000431e-01,7.381181100000000495e-01
8.157888899999999888e-01,7.434329299999999918e-01
8.159271399999999952e-01,7.486614999999999798e-01
8.160653900000000016e-01,7.538031899999999563e-01
8.162036499999999473e-01,7.588574500000000445e-01
8.163418999999999537e-01,7.638238000000000527e-01
8.164801600000000104e-01,7.687018500000000198e-01
8.166184100000000168e-01,7.734912999999999927e-01
8.167566699999999624e-01,7.781918799999999470e-01
8.168949199999999689e-01,7.828034400000000170e-01
8.170331699999999753e-01,7.873258699999999832e-01
8.171714300000000319e-01,7.917591600000000174e-01
8.173096800000000384e-01,7.961033499999999874e-01
8.174479399999999840e-01,8.003585500000000019e-01
8.175861899999999904e-01,8.045249399999999662e-01
8.177244399999999969e-01,8.086027700000000262e-01
8.178627000000000535e-01,8.125923400000000241e-01
8.180009499999999489e-01,8.164940400000000320e-01
8.181392100000000056e-01,8.203082900000000510e-01
8.182774600000000120e-01,8.240355900000000400e-01
8.184157100000000185e-01,8.276764699999999975e-01
8.185539699999999641e-01,8.312315500000000412e-01
8.186922199999999705e-01,8.347014799999999957e-01
8.188304800000000272e-01,8.380869600000000474e-01
8.189687300000000336e-01,8.413887500000000186e-01
8.191069899999999793e-01,8.446076500000000431e-01
8.192452399999999857e-01,8.477445000000000119e-01
8.193834899999999921e-01,8.508001899999999562e-01
8.195217500000000488e-01,8.537756399999999468e-01
8.196600000000000552e-01,8.566718300000000230e-01
8.197982600000000009e-01,8.594897400000000021e-01
8.199365100000000073e-01,8.622304299999999921e-01
8.200747600000000137e-01,8.648949500000000512e-01
8.202130199999999594e-01,8.674844000000000444e-01
8.203512699999999658e-01,8.699999099999999874e-01
8.204895300000000224e-01,8.724426199999999465e-01
8.206277800000000289e-01,8.748137000000000274e-01
8.207660300000000353e-01,8.771143500000000426e-01
8.209042899999999809e-01,8.793457900000000160e-01
8.210425399999999874e-01,8.815092300000000325e-01
8.211808000000000440e-01,8.836059299999999839e-01
8.213190500000000505e-01,8.856371499999999841e-01
8.214573099999999961e-01,8.876041500000000362e-01
8.215955600000000025e-01,8.895082100000000214e-01
8.217338100000000090e-01,8.913506300000000326e-01
8.218720699999999546e-01,8.931326899999999513e-01
8.220103199999999610e-01,8.948556899999999814e-01
8.221485800000000177e-01,8.965209400000000439e-01
8.222868300000000241e-01,8.981297400000000097e-01
8.224250800000000305e-01,8.996833800000000325e-01
8.225633399999999762e-01,9.011831799999999726e-01
8.227015899999999826e-01,9.026304099999999941e-01
8.228398500000000393e-01,9.040263800000000183e-01
8.229781000000000457e-01,9.053723700000000374e-01
8.231163500000000521e-01,9.066696600000000439e-01
8.232546099999999978e-01,9.079195199999999799e-01
8.233928600000000042e-01,9.091232099999999594e-01
8.235311199999999499e-01,9.102819699999999958e-01
8.236693699999999563e-01,9.113970500000000419e-01
8.238076300000000129e-01,9.124696599999999602e-01
8.239458800000000194e-01,9.135010300000000472e-01
8.240841300000000258e-01,9.144923299999999644e-01
8.242223899999999714e-01,9.154447700000000188e-01
8.243606399999999779e-01,9.163594900000000543e-01
8.244989000000000345e-01,9.172376500000000155e-01
8.246371500000000410e-01,9.180803699999999790e-01
8.247754000000000474e-01,9.188887700000000214e-01
8.249136599999999930e-01,9.196639399999999576e-01
8.250519099999999995e-01,9.204069499999999460e-01
8.251901699999999451e-01,9.211188599999999838e-01
