#wavelength,transmission
1.107699999999999907e+00,1.015687499999999951e-16
1.107844499999999899e+00,1.015687499999999951e-16
1.107988900000000054e+00,1.015687499999999951e-16
1.108133400000000046e+00,1.015687499999999951e-16
1.108277900000000038e+00,1.523531300000000040e-16
1.108422400000000030e+00,2.031374999999999901e-16
1.108566799999999963e+00,2.031374999999999901e-16
1.108711299999999955e+00,3.047062500000000098e-16
1.108855799999999947e+00,3.047062500000000098e-16
1.109000200000000103e+00,4.062749999999999802e-16
1.109144700000000094e+00,4.570593799999999892e-16
1.109289200000000086e+00,5.078437499999999999e-16
1.109433700000000078e+00,6.094125100000000178e-16
1.109578100000000012e+00,7.109812600000000375e-16
1.109722600000000003e+00,9.141187599999999783e-16
1.109867099999999995e+00,1.015687500000000000e-15
1.110011499999999929e+00,1.218825000000000039e-15
1.110155999999999921e+00,1.472746900000000084e-15
1.110300499999999913e+00,1.726668799999999932e-15
1.110444999999999904e+00,2.031375000000000000e-15
1.110589400000000060e+00,2.386865600000000073e-15
1.110733900000000052e+00,2.843925000000000157e-15
1.110878400000000044e+00,3.351768799999999852e-15
1.111022900000000035e+00,3.961181299999999971e-15
1.111167299999999969e+00,4.621378199999999700e-15
1.111311799999999961e+00,5.433928199999999857e-15
1.111456299999999953e+00,6.398831299999999655e-15
1.111600700000000108e+00,7.516087599999999862e-15
1.111745200000000100e+00,8.836481299999999339e-15
1.111889700000000092e+00,1.036001300000000034e-14
1.112034200000000084e+00,1.218825000000000079e-14
1.112178600000000017e+00,1.432119399999999879e-14
1.112323100000000009e+00,1.680962800000000052e-14
1.112467600000000001e+00,1.970433799999999900e-14
1.112611999999999934e+00,2.315767500000000134e-14
1.112756499999999926e+00,2.711885599999999978e-14
1.112900999999999918e+00,3.174023500000000092e-14
1.113045499999999910e+00,3.717416300000000239e-14
1.113189900000000065e+00,4.347142499999999897e-14
1.113334400000000057e+00,5.088594400000000273e-14
1.113478900000000049e+00,5.951928799999999726e-14
1.113623400000000041e+00,6.957459399999999373e-14
1.113767799999999975e+00,8.130578500000000422e-14
1.113912299999999966e+00,9.496678199999999699e-14
1.114056799999999958e+00,1.108622899999999983e-13
1.114201199999999892e+00,1.293985899999999978e-13
1.114345700000000106e+00,1.509311600000000124e-13
1.114490200000000097e+00,1.759678599999999879e-13
1.114634700000000089e+00,2.050673099999999957e-13
1.114779100000000023e+00,2.389404899999999897e-13
1.114923600000000015e+00,2.782983799999999994e-13
1.115068100000000006e+00,3.239027499999999852e-13
1.115212499999999940e+00,3.768708500000000248e-13
1.115356999999999932e+00,4.383707299999999863e-13
1.115501499999999924e+00,5.095704200000000190e-13
1.115645999999999916e+00,5.921458200000000267e-13
1.115790400000000071e+00,6.878743700000000349e-13
1.115934900000000063e+00,7.986350900000000311e-13
1.116079400000000055e+00,9.269164199999999655e-13
1.116223900000000047e+00,1.075359199999999916e-12
1.116368299999999980e+00,1.246959599999999941e-12
1.116512799999999972e+00,1.445424899999999915e-12
1.116657299999999964e+00,1.674767100000000085e-12
1.116801699999999897e+00,1.939556900000000096e-12
1.116946199999999889e+00,2.245380400000000100e-12
1.117090700000000103e+00,2.598331800000000127e-12
1.117235200000000095e+00,3.005419299999999931e-12
1.117379600000000028e+00,3.474870100000000174e-12
1.117524100000000020e+00,4.015926799999999601e-12
1.117668600000000012e+00,4.639254299999999703e-12
1.117812999999999946e+00,5.357142200000000393e-12
1.117957499999999937e+00,6.183404000000000377e-12
1.118101999999999929e+00,7.134189100000000205e-12
1.118246499999999921e+00,8.227678199999999300e-12
1.118390900000000077e+00,9.484743899999999256e-12
1.118535400000000068e+00,1.092925499999999936e-11
1.118679900000000060e+00,1.258843099999999927e-11
1.118824400000000052e+00,1.449345400000000009e-11
1.118968799999999986e+00,1.667972199999999867e-11
1.119113299999999978e+00,1.918760699999999874e-11
1.119257799999999969e+00,2.206327200000000111e-11
1.119402199999999903e+00,2.535927900000000080e-11
1.119546699999999895e+00,2.913540199999999755e-11
1.119691200000000109e+00,3.345969200000000315e-11
1.119835700000000100e+00,3.840954400000000143e-11
1.119980100000000034e+00,4.407311900000000015e-11
1.120124600000000026e+00,5.055051300000000138e-11
1.120269100000000018e+00,5.795543400000000025e-11
1.120413499999999951e+00,6.641712700000000407e-11
1.120557999999999943e+00,7.608220600000000415e-11
1.120702499999999935e+00,8.711709199999999381e-11
1.120846999999999927e+00,9.971044900000000457e-11
1.120991400000000082e+00,1.140762300000000033e-10
1.121135900000000074e+00,1.304568300000000000e-10
1.121280400000000066e+00,1.491267900000000014e-10
1.121424900000000058e+00,1.703970200000000126e-10
1.121569299999999991e+00,1.946190299999999917e-10
1.121713799999999983e+00,2.221907799999999953e-10
1.121858299999999975e+00,2.535619699999999881e-10
1.122002699999999908e+00,2.892407899999999789e-10
1.122147199999999900e+00,3.298012500000000247e-10
1.122291699999999892e+00,3.758915199999999796e-10
1.122436200000000106e+00,4.282427999999999742e-10
1.122580600000000040e+00,4.876802199999999618e-10
1.122725100000000031e+00,5.551338100000000410e-10
1.122869600000000023e+00,6.316518000000000417e-10
1.123013999999999957e+00,7.184148199999999686e-10
1.123158499999999949e+00,8.167523599999999636e-10
1.123302999999999940e+00,9.281605399999999531e-10
1.123447499999999932e+00,1.054322300000000045e-09
1.123591900000000088e+00,1.197130100000000012e-09
1.123736400000000080e+00,1.358710599999999938e-09
1.123880900000000072e+00,1.541452899999999980e-09
1.124025400000000063e+00,1.748039599999999970e-09
1.124169799999999997e+00,1.981481500000000133e-09
1.124314299999999989e+00,2.245156200000000164e-09
1.124458799999999981e+00,2.542851000000000073e-09
1.124603199999999914e+00,2.878810500000000065e-09
1.124747699999999906e+00,3.257790199999999833e-09
1.124892199999999898e+00,3.685114899999999810e-09
1.125036699999999890e+00,4.166744599999999839e-09
1.125181100000000045e+00,4.709346799999999887e-09
1.125325600000000037e+00,5.320377500000000222e-09
1.125470100000000029e+00,6.008170299999999625e-09
1.125614499999999962e+00,6.782035599999999716e-09
1.125758999999999954e+00,7.652370100000000150e-09
1.125903499999999946e+00,8.630778400000000161e-09
1.126047999999999938e+00,9.730207600000000110e-09
1.126192400000000093e+00,1.096509499999999976e-08
1.126336900000000085e+00,1.235153499999999937e-08
1.126481400000000077e+00,1.390745499999999951e-08
1.126625900000000069e+00,1.565282200000000077e-08
1.126770300000000002e+00,1.760986199999999922e-08
1.126914799999999994e+00,1.980330099999999872e-08
1.127059299999999986e+00,2.226063599999999972e-08
1.127203699999999920e+00,2.501243499999999894e-08
1.127348199999999911e+00,2.809265500000000136e-08
1.127492699999999903e+00,3.153901199999999924e-08
1.127637199999999895e+00,3.539336600000000220e-08
1.127781600000000051e+00,3.970216600000000039e-08
1.127926100000000043e+00,4.451691899999999819e-08
1.128070600000000034e+00,4.989472200000000182e-08
1.128214999999999968e+00,5.589883500000000015e-08
1.128359499999999960e+00,6.259931700000000203e-08
1.128503999999999952e+00,7.007371599999999815e-08
1.128648499999999943e+00,7.840783299999999943e-08
1.128792900000000099e+00,8.769655899999999613e-08
1.128937400000000091e+00,9.804478200000000542e-08
1.129081900000000083e+00,1.095683900000000040e-07
1.129226400000000075e+00,1.223953699999999973e-07
1.129370800000000008e+00,1.366669900000000056e-07
1.129515300000000000e+00,1.525391399999999920e-07
1.129659799999999992e+00,1.701836899999999976e-07
1.129804199999999925e+00,1.897901499999999956e-07
1.129948699999999917e+00,2.115672899999999976e-07
1.130093199999999909e+00,2.357449999999999977e-07
1.130237699999999901e+00,2.625763899999999935e-07
1.130382100000000056e+00,2.923398900000000072e-07
1.130526600000000048e+00,3.253417200000000191e-07
1.130671100000000040e+00,3.619184700000000095e-07
1.130815499999999973e+00,4.024399600000000095e-07
1.130959999999999965e+00,4.473123100000000149e-07
1.131104499999999957e+00,4.969812999999999981e-07
1.131248999999999949e+00,5.519360199999999665e-07
1.131393400000000105e+00,6.127128099999999613e-07
1.131537900000000096e+00,6.798995699999999689e-07
1.131682400000000088e+00,7.541403799999999509e-07
1.131826900000000080e+00,8.361405700000000244e-07
1.131971300000000014e+00,9.266721500000000424e-07
1.132115800000000005e+00,1.026579800000000040e-06
1.132260299999999997e+00,1.136786999999999921e-06
1.132404699999999931e+00,1.258303299999999991e-06
1.132549199999999923e+00,1.392231699999999993e-06
1.132693699999999914e+00,1.539776300000000066e-06
1.132838199999999906e+00,1.702251699999999906e-06
1.132982600000000062e+00,1.881091700000000044e-06
1.133127100000000054e+00,2.077859899999999848e-06
1.133271600000000046e+00,2.294260500000000071e-06
1.133415999999999979e+00,2.532149800000000094e-06
1.133560499999999971e+00,2.793549200000000192e-06
1.133704999999999963e+00,3.080658600000000168e-06
1.133849499999999955e+00,3.395870999999999796e-06
1.133993900000000110e+00,3.741788400000000175e-06
1.134138400000000102e+00,4.121238399999999990e-06
1.134282900000000094e+00,4.537292600000000002e-06
1.134427400000000086e+00,4.993285700000000337e-06
1.134571800000000019e+00,5.492836699999999884e-06
1.134716300000000011e+00,6.039871000000000232e-06
1.134860800000000003e+00,6.638644199999999671e-06
1.135005199999999936e+00,7.293767900000000393e-06
1.135149699999999928e+00,8.010236799999999641e-06
1.135294199999999920e+00,8.793458299999999678e-06
1.135438699999999912e+00,9.649283099999999351e-06
1.135583100000000067e+00,1.058403900000000067e-05
1.135727600000000059e+00,1.160456700000000039e-05
1.135872100000000051e+00,1.271825799999999996e-05
1.136016499999999985e+00,1.393309299999999965e-05
1.136160999999999976e+00,1.525768899999999953e-05
1.136305499999999968e+00,1.670134100000000100e-05
1.136449999999999960e+00,1.827407199999999846e-05
1.136594399999999894e+00,1.998668800000000009e-05
1.136738900000000108e+00,2.185082800000000085e-05
1.136883400000000099e+00,2.387902399999999853e-05
1.137027900000000091e+00,2.608476700000000111e-05
1.137172300000000025e+00,2.848256399999999884e-05
1.137316800000000017e+00,3.108801900000000319e-05
1.137461300000000008e+00,3.391789700000000110e-05
1.137605699999999942e+00,3.699020499999999730e-05
1.137750199999999934e+00,4.032427899999999868e-05
1.137894699999999926e+00,4.394086299999999678e-05
1.138039199999999918e+00,4.786220999999999792e-05
1.138183600000000073e+00,5.211217099999999956e-05
1.138328100000000065e+00,5.671630400000000205e-05
1.138472600000000057e+00,6.170197699999999683e-05
1.138616999999999990e+00,6.709848599999999636e-05
1.138761499999999982e+00,7.293717200000000031e-05
1.138905999999999974e+00,7.925154799999999632e-05
1.139050499999999966e+00,8.607743300000000050e-05
1.139194899999999899e+00,9.345308700000000597e-05
1.139339399999999891e+00,1.014193599999999972e-04
1.139483900000000105e+00,1.100198499999999966e-04
1.139628400000000097e+00,1.193010500000000053e-04
1.139772800000000030e+00,1.293125299999999943e-04
1.139917300000000022e+00,1.401070999999999990e-04
1.140061800000000014e+00,1.517410199999999975e-04
1.140206199999999948e+00,1.642741399999999891e-04
1.140350699999999939e+00,1.777701699999999988e-04
1.140495199999999931e+00,1.922968299999999937e-04
1.140639699999999923e+00,2.079260999999999946e-04
1.140784100000000079e+00,2.247344299999999963e-04
1.140928600000000070e+00,2.428029899999999987e-04
1.141073100000000062e+00,2.622179299999999975e-04
1.141217499999999996e+00,2.830705899999999857e-04
1.141361999999999988e+00,3.054577900000000142e-04
1.141506499999999980e+00,3.294821299999999963e-04
1.141650999999999971e+00,3.552522399999999826e-04
1.141795399999999905e+00,3.828830799999999920e-04
1.141939899999999897e+00,4.124962699999999943e-04
1.142084400000000111e+00,4.442203600000000242e-04
1.142228900000000102e+00,4.781912199999999776e-04
1.142373300000000036e+00,5.145523199999999572e-04
1.142517800000000028e+00,5.534550800000000116e-04
1.142662300000000020e+00,5.950592700000000013e-04
1.142806699999999953e+00,6.395333400000000144e-04
1.142951199999999945e+00,6.870548000000000410e-04
1.143095699999999937e+00,7.378106100000000412e-04
1.143240199999999929e+00,7.919975799999999727e-04
1.143384600000000084e+00,8.498227899999999564e-04
1.143529100000000076e+00,9.115039599999999898e-04
1.143673600000000068e+00,9.772699200000000211e-04
1.143818000000000001e+00,1.047360999999999908e-03
1.143962499999999993e+00,1.122029500000000036e-03
1.144106999999999985e+00,1.201540199999999925e-03
1.144251499999999977e+00,1.286170600000000096e-03
1.144395899999999910e+00,1.376211700000000036e-03
1.144540399999999902e+00,1.471968099999999965e-03
1.144684899999999894e+00,1.573758900000000061e-03
1.144829400000000108e+00,1.681917700000000026e-03
1.144973800000000042e+00,1.796793500000000042e-03
1.145118300000000033e+00,1.918751000000000007e-03
1.145262800000000025e+00,2.048171000000000106e-03
1.145407199999999959e+00,2.185451000000000147e-03
1.145551699999999951e+00,2.331005799999999982e-03
1.145696199999999942e+00,2.485267700000000010e-03
1.145840699999999934e+00,2.648687399999999966e-03
1.145985100000000090e+00,2.821733800000000153e-03
1.146129600000000082e+00,3.004895499999999785e-03
1.146274100000000074e+00,3.198680099999999787e-03
1.146418500000000007e+00,3.403615599999999797e-03
1.146562999999999999e+00,3.620250399999999907e-03
1.146707499999999991e+00,3.849153899999999996e-03
1.146851999999999983e+00,4.090916899999999870e-03
1.146996399999999916e+00,4.346151799999999760e-03
1.147140899999999908e+00,4.615493699999999831e-03
1.147285399999999900e+00,4.899599699999999947e-03
1.147429899999999892e+00,5.199150300000000141e-03
1.147574300000000047e+00,5.514849300000000155e-03
1.147718800000000039e+00,5.847424099999999972e-03
1.147863300000000031e+00,6.197626000000000350e-03
1.148007699999999964e+00,6.566230600000000361e-03
1.148152199999999956e+00,6.954038200000000128e-03
1.148296699999999948e+00,7.361873500000000285e-03
1.148441199999999940e+00,7.790586399999999655e-03
1.148585600000000095e+00,8.241051699999999910e-03
1.148730100000000087e+00,8.714169600000000113e-03
1.148874600000000079e+00,9.210865299999999173e-03
1.149019000000000013e+00,9.732089500000000795e-03
1.149163500000000004e+00,1.027881800000000033e-02
1.149307999999999996e+00,1.085205300000000039e-02
1.149452499999999988e+00,1.145282000000000071e-02
1.149596899999999922e+00,1.208217099999999919e-02
1.149741399999999913e+00,1.274118100000000073e-02
1.149885899999999905e+00,1.343095300000000068e-02
1.150030399999999897e+00,1.415261200000000018e-02
1.150174800000000053e+00,1.490730600000000038e-02
1.150319300000000045e+00,1.569620799999999969e-02
1.150463800000000036e+00,1.652051400000000003e-02
1.150608199999999970e+00,1.738144299999999989e-02
1.150752699999999962e+00,1.828023499999999885e-02
1.150897199999999954e+00,1.921814999999999982e-02
1.151041699999999945e+00,2.019647200000000004e-02
1.151186100000000101e+00,2.121650200000000167e-02
1.151330600000000093e+00,2.227956099999999981e-02
1.151475100000000085e+00,2.338698599999999850e-02
1.151619600000000077e+00,2.454013400000000164e-02
1.151764000000000010e+00,2.574037599999999884e-02
1.151908500000000002e+00,2.698909600000000061e-02
1.152052999999999994e+00,2.828769600000000106e-02
1.152197399999999927e+00,2.963758500000000101e-02
1.152341899999999919e+00,3.104018700000000033e-02
1.152486399999999911e+00,3.249693199999999921e-02
1.152630899999999903e+00,3.400925999999999949e-02
1.152775300000000058e+00,3.557861600000000041e-02
1.152919800000000050e+00,3.720644900000000255e-02
1.153064300000000042e+00,3.889421400000000334e-02
1.153208699999999975e+00,4.064336200000000232e-02
1.153353199999999967e+00,4.245534799999999692e-02
1.153497699999999959e+00,4.433162000000000214e-02
1.153642199999999951e+00,4.627362399999999931e-02
1.153786600000000107e+00,4.828279700000000230e-02
1.153931100000000098e+00,5.036057000000000033e-02
1.154075600000000090e+00,5.250835899999999751e-02
1.154220100000000082e+00,5.472756899999999675e-02
1.154364500000000016e+00,5.701958800000000299e-02
1.154509000000000007e+00,5.938578700000000238e-02
1.154653499999999999e+00,6.182751599999999903e-02
1.154797899999999933e+00,6.434610100000000277e-02
1.154942399999999925e+00,6.694284500000000082e-02
1.155086899999999916e+00,6.961902000000000368e-02
1.155231399999999908e+00,7.237587099999999440e-02
1.155375800000000064e+00,7.521460700000000277e-02
1.155520300000000056e+00,7.813640400000000652e-02
1.155664800000000048e+00,8.114239700000000499e-02
1.155809199999999981e+00,8.423368200000000416e-02
1.155953699999999973e+00,8.741131200000000490e-02
1.156098199999999965e+00,9.067629400000000450e-02
1.156242699999999957e+00,9.402958599999999834e-02
1.156387099999999890e+00,9.747209399999999524e-02
1.156531600000000104e+00,1.010046700000000047e-01
1.156676100000000096e+00,1.046281200000000050e-01
1.156820600000000088e+00,1.083431700000000025e-01
1.156965000000000021e+00,1.121505000000000002e-01
1.157109500000000013e+00,1.160507300000000047e-01
1.157254000000000005e+00,1.200444100000000042e-01
1.157398399999999938e+00,1.241320000000000062e-01
1.157542899999999930e+00,1.283139299999999927e-01
1.157687399999999922e+00,1.325905300000000120e-01
1.157831899999999914e+00,1.369620599999999966e-01
1.157976300000000069e+00,1.414287100000000130e-01
1.158120800000000061e+00,1.459905800000000087e-01
1.158265300000000053e+00,1.506476999999999955e-01
1.158409699999999987e+00,1.554000000000000103e-01
1.158554199999999978e+00,1.602473600000000054e-01
1.158698699999999970e+00,1.651895399999999958e-01
1.158843199999999962e+00,1.702262400000000009e-01
1.158987599999999896e+00,1.753570399999999918e-01
1.159132100000000110e+00,1.805814699999999939e-01
1.159276600000000101e+00,1.858989299999999900e-01
1.159421100000000093e+00,1.913087699999999891e-01
1.159565500000000027e+00,1.968102100000000132e-01
1.159710000000000019e+00,2.024024000000000101e-01
1.159854500000000010e+00,2.080844000000000027e-01
1.159998899999999944e+00,2.138551499999999939e-01
1.160143399999999936e+00,2.197135299999999902e-01
1.160287899999999928e+00,2.256583100000000008e-01
1.160432399999999920e+00,2.316881600000000041e-01
1.160576800000000075e+00,2.378016799999999875e-01
1.160721300000000067e+00,2.439973599999999965e-01
1.160865800000000059e+00,2.502735899999999902e-01
1.161010199999999992e+00,2.566286999999999874e-01
1.161154699999999984e+00,2.630608999999999864e-01
1.161299199999999976e+00,2.695683300000000227e-01
1.161443699999999968e+00,2.761490400000000123e-01
1.161588099999999901e+00,2.828009899999999743e-01
1.161732599999999893e+00,2.895220600000000255e-01
1.161877100000000107e+00,2.963100499999999915e-01
1.162021600000000099e+00,3.031626599999999727e-01
1.162166000000000032e+00,3.100775499999999796e-01
1.162310500000000024e+00,3.170522700000000249e-01
1.162455000000000016e+00,3.240843199999999813e-01
1.162599399999999950e+00,3.311711199999999855e-01
1.162743899999999941e+00,3.383100199999999891e-01
1.162888399999999933e+00,3.454983099999999752e-01
1.163032899999999925e+00,3.527332200000000140e-01
1.163177300000000081e+00,3.600119199999999853e-01
1.163321800000000072e+00,3.673315200000000225e-01
1.163466300000000064e+00,3.746890900000000024e-01
1.163610699999999998e+00,3.820816300000000054e-01
1.163755199999999990e+00,3.895061400000000007e-01
1.163899699999999982e+00,3.969595200000000101e-01
1.164044199999999973e+00,4.044386899999999896e-01
1.164188599999999907e+00,4.119404899999999925e-01
1.164333099999999899e+00,4.194617500000000221e-01
1.164477599999999891e+00,4.269993000000000261e-01
1.164622100000000104e+00,4.345498999999999890e-01
1.164766500000000038e+00,4.421103299999999958e-01
1.164911000000000030e+00,4.496773499999999757e-01
1.165055500000000022e+00,4.572477099999999739e-01
1.165199899999999955e+00,4.648181299999999960e-01
