#wavelength,transmission
1.078249900000000094e+00,2.102318200000000138e-15
1.078440099999999902e+00,2.584099400000000032e-15
1.078630299999999931e+00,3.197275600000000160e-15
1.078820499999999960e+00,3.941846599999999771e-15
1.079010699999999989e+00,4.905409100000000329e-15
1.079200900000000019e+00,6.087963099999999862e-15
1.079391100000000048e+00,7.533306799999999919e-15
1.079581300000000077e+00,9.285238599999999646e-15
1.079771500000000106e+00,1.147515300000000055e-14
1.079961699999999913e+00,1.419064800000000071e-14
1.080151899999999943e+00,1.751931800000000042e-14
1.080342099999999972e+00,2.154876099999999935e-14
1.080532300000000001e+00,2.658556500000000032e-14
1.080722500000000030e+00,3.271732700000000003e-14
1.080912700000000060e+00,4.025063399999999834e-14
1.081102900000000089e+00,4.949207399999999808e-14
1.081293099999999896e+00,6.079203399999999879e-14
1.081483200000000089e+00,7.454469899999999681e-14
1.081673399999999896e+00,9.145084099999999786e-14
1.081863599999999925e+00,1.120798400000000041e-13
1.082053799999999955e+00,1.372638599999999995e-13
1.082243999999999984e+00,1.680102600000000118e-13
1.082434200000000013e+00,2.054140100000000027e-13
1.082624400000000042e+00,2.510080300000000217e-13
1.082814600000000071e+00,3.065004699999999851e-13
1.083004800000000101e+00,3.739498500000000012e-13
1.083194999999999908e+00,4.559402600000000026e-13
1.083385199999999937e+00,5.555375800000000305e-13
1.083575399999999966e+00,6.763332800000000223e-13
1.083765599999999996e+00,8.228385799999999837e-13
1.083955800000000025e+00,1.000353100000000046e-12
1.084146000000000054e+00,1.215227500000000034e-12
1.084336200000000083e+00,1.475170400000000093e-12
1.084526399999999891e+00,1.789423200000000093e-12
1.084716599999999920e+00,2.169066799999999936e-12
1.084906799999999949e+00,2.627284599999999918e-12
1.085096999999999978e+00,3.179975200000000003e-12
1.085287200000000007e+00,3.846147299999999779e-12
1.085477299999999978e+00,4.648488300000000348e-12
1.085667500000000008e+00,5.614065499999999955e-12
1.085857700000000037e+00,6.775245900000000293e-12
1.086047900000000066e+00,8.170615799999999367e-12
1.086238100000000095e+00,9.846207199999999905e-12
1.086428299999999902e+00,1.185672400000000068e-11
1.086618499999999932e+00,1.426738200000000049e-11
1.086808699999999961e+00,1.715557299999999908e-11
1.086998899999999990e+00,2.061340500000000147e-11
1.087189100000000019e+00,2.475006600000000110e-11
1.087379300000000049e+00,2.969515700000000075e-11
1.087569500000000078e+00,3.560232000000000011e-11
1.087759700000000107e+00,4.265340799999999895e-11
1.087949899999999914e+00,5.106364399999999938e-11
1.088140099999999943e+00,6.108758500000000097e-11
1.088330299999999973e+00,7.302603699999999878e-11
1.088520500000000002e+00,8.723385300000000004e-11
1.088710700000000031e+00,1.041299700000000020e-10
1.088900900000000060e+00,1.242079800000000004e-10
1.089091100000000090e+00,1.480494100000000038e-10
1.089281299999999897e+00,1.763385099999999883e-10
1.089471400000000090e+00,2.098799399999999944e-10
1.089661599999999897e+00,2.496192700000000179e-10
1.089851799999999926e+00,2.966667500000000188e-10
1.090041999999999955e+00,3.523247400000000007e-10
1.090232199999999985e+00,4.181200799999999940e-10
1.090422400000000014e+00,4.958411200000000427e-10
1.090612600000000043e+00,5.875811100000000350e-10
1.090802800000000072e+00,6.957878699999999551e-10
1.090993000000000102e+00,8.233220200000000094e-10
1.091183199999999909e+00,9.735236800000000199e-10
1.091373399999999938e+00,1.150289799999999900e-09
1.091563599999999967e+00,1.358163500000000074e-09
1.091753799999999996e+00,1.602436799999999911e-09
1.091944000000000026e+00,1.889269599999999905e-09
1.092134200000000055e+00,2.225825899999999888e-09
1.092324400000000084e+00,2.620430900000000098e-09
1.092514599999999891e+00,3.082752000000000151e-09
1.092704799999999921e+00,3.624006000000000151e-09
1.092894999999999950e+00,4.257196500000000272e-09
1.093085199999999979e+00,4.997387700000000349e-09
1.093275299999999950e+00,5.862016300000000049e-09
1.093465499999999979e+00,6.871249199999999979e-09
1.093655700000000008e+00,8.048392299999999655e-09
1.093845900000000038e+00,9.420358299999999382e-09
1.094036100000000067e+00,1.101819900000000037e-08
1.094226300000000096e+00,1.287771499999999972e-08
1.094416499999999903e+00,1.504014600000000122e-08
1.094606699999999933e+00,1.755296299999999987e-08
1.094796899999999962e+00,2.047076399999999935e-08
1.094987099999999991e+00,2.385629299999999944e-08
1.095177300000000020e+00,2.778159800000000112e-08
1.095367500000000049e+00,3.232934800000000291e-08
1.095557700000000079e+00,3.759431699999999749e-08
1.095747900000000108e+00,4.368507299999999722e-08
1.095938099999999915e+00,5.072588500000000014e-08
1.096128299999999944e+00,5.885887799999999867e-08
1.096318499999999974e+00,6.824646899999999510e-08
1.096508700000000003e+00,7.907411599999999449e-08
1.096698900000000032e+00,9.155341300000000192e-08
1.096889100000000061e+00,1.059255800000000035e-07
1.097079300000000091e+00,1.224654000000000002e-07
1.097269400000000061e+00,1.414856000000000053e-07
1.097459600000000091e+00,1.633418499999999930e-07
1.097649799999999898e+00,1.884383000000000126e-07
1.097839999999999927e+00,2.172338500000000100e-07
1.098030199999999956e+00,2.502490700000000220e-07
1.098220399999999985e+00,2.880741000000000080e-07
1.098410600000000015e+00,3.313773599999999989e-07
1.098600800000000044e+00,3.809152999999999963e-07
1.098791000000000073e+00,4.375433399999999785e-07
1.098981200000000102e+00,5.022279699999999597e-07
1.099171399999999910e+00,5.760603599999999672e-07
1.099361599999999939e+00,6.602713600000000322e-07
1.099551799999999968e+00,7.562483000000000393e-07
1.099741999999999997e+00,8.655535600000000147e-07
1.099932200000000027e+00,9.899452500000000744e-07
1.100122400000000056e+00,1.131400100000000025e-06
1.100312600000000085e+00,1.292138800000000016e-06
1.100502799999999892e+00,1.474654000000000044e-06
1.100692999999999921e+00,1.681741499999999906e-06
1.100883199999999951e+00,1.916534400000000049e-06
1.101073399999999980e+00,2.182540800000000051e-06
1.101263499999999951e+00,2.483685599999999895e-06
1.101453699999999980e+00,2.824356199999999947e-06
1.101643900000000009e+00,3.209453199999999997e-06
1.101834100000000038e+00,3.644445799999999905e-06
1.102024300000000068e+00,4.135432400000000044e-06
1.102214500000000097e+00,4.689207600000000393e-06
1.102404699999999904e+00,5.313335500000000045e-06
1.102594899999999933e+00,6.016229300000000081e-06
1.102785099999999963e+00,6.807239500000000371e-06
1.102975299999999992e+00,7.696748799999999501e-06
1.103165500000000021e+00,8.696277100000000433e-06
1.103355700000000050e+00,9.818594799999999243e-06
1.103545900000000080e+00,1.107784699999999944e-05
1.103736100000000109e+00,1.248968699999999947e-05
1.103926299999999916e+00,1.407142599999999994e-05
1.104116499999999945e+00,1.584218699999999998e-05
1.104306699999999974e+00,1.782308100000000019e-05
1.104496900000000004e+00,2.003739399999999920e-05
1.104687100000000033e+00,2.251078300000000155e-05
1.104877300000000062e+00,2.527150199999999899e-05
1.105067500000000091e+00,2.835063399999999891e-05
1.105257600000000062e+00,3.178234100000000112e-05
1.105447800000000091e+00,3.560414500000000333e-05
1.105637999999999899e+00,3.985721599999999891e-05
1.105828199999999928e+00,4.458669400000000148e-05
1.106018399999999957e+00,4.984202000000000294e-05
1.106208599999999986e+00,5.567730999999999700e-05
1.106398800000000016e+00,6.215173599999999497e-05
1.106589000000000045e+00,6.932994800000000647e-05
1.106779200000000074e+00,7.728251499999999846e-05
1.106969400000000103e+00,8.608640400000000059e-05
1.107159599999999910e+00,9.582548499999999823e-05
1.107349799999999940e+00,1.065910700000000013e-04
1.107539999999999969e+00,1.184824700000000006e-04
1.107730199999999998e+00,1.316076399999999928e-04
1.107920400000000027e+00,1.460837800000000042e-04
1.108110600000000057e+00,1.620380400000000123e-04
1.108300800000000086e+00,1.796082600000000102e-04
1.108490999999999893e+00,1.989436600000000013e-04
1.108681199999999922e+00,2.202057400000000077e-04
1.108871399999999952e+00,2.435690500000000020e-04
1.109061499999999922e+00,2.692220999999999850e-04
1.109251699999999952e+00,2.973683100000000111e-04
1.109441899999999981e+00,3.282269499999999830e-04
1.109632100000000010e+00,3.620342099999999843e-04
1.109822300000000039e+00,3.990442100000000112e-04
1.110012500000000069e+00,4.395301799999999735e-04
1.110202700000000098e+00,4.837855600000000159e-04
1.110392899999999905e+00,5.321252299999999942e-04
1.110583099999999934e+00,5.848867700000000237e-04
1.110773299999999963e+00,6.424317299999999587e-04
1.110963499999999993e+00,7.051470199999999638e-04
1.111153700000000022e+00,7.734462100000000359e-04
1.111343900000000051e+00,8.477710299999999732e-04
1.111534100000000080e+00,9.285927899999999900e-04
1.111724300000000110e+00,1.016413899999999955e-03
1.111914499999999917e+00,1.111769299999999967e-03
1.112104699999999946e+00,1.215228399999999974e-03
1.112294899999999975e+00,1.327396000000000001e-03
1.112485100000000005e+00,1.448914500000000102e-03
1.112675300000000034e+00,1.580465299999999967e-03
1.112865500000000063e+00,1.722770599999999975e-03
1.113055600000000034e+00,1.876594799999999931e-03
1.113245800000000063e+00,2.042746299999999900e-03
1.113436000000000092e+00,2.222079200000000136e-03
1.113626199999999900e+00,2.415495000000000142e-03
1.113816399999999929e+00,2.623944000000000016e-03
1.114006599999999958e+00,2.848427299999999832e-03
1.114196799999999987e+00,3.089998100000000084e-03
1.114387000000000016e+00,3.349763200000000028e-03
1.114577200000000046e+00,3.628884699999999994e-03
1.114767400000000075e+00,3.928581500000000171e-03
1.114957600000000104e+00,4.250130300000000069e-03
1.115147799999999911e+00,4.594867300000000411e-03
1.115337999999999941e+00,4.964189100000000396e-03
1.115528199999999970e+00,5.359554100000000348e-03
1.115718399999999999e+00,5.782483199999999789e-03
1.115908600000000028e+00,6.234560800000000375e-03
1.116098800000000058e+00,6.717435800000000172e-03
1.116289000000000087e+00,7.232821599999999726e-03
1.116479199999999894e+00,7.782497099999999800e-03
1.116669399999999923e+00,8.368306500000000439e-03
1.116859599999999952e+00,8.992159899999999442e-03
1.117049699999999923e+00,9.656032700000000829e-03
1.117239899999999952e+00,1.036196500000000076e-02
1.117430099999999982e+00,1.111206300000000015e-02
1.117620300000000011e+00,1.190849499999999984e-02
1.117810500000000040e+00,1.275349199999999995e-02
1.118000700000000069e+00,1.364934800000000038e-02
1.118190900000000099e+00,1.459841599999999948e-02
1.118381099999999906e+00,1.560310799999999921e-02
1.118571299999999935e+00,1.666588899999999970e-02
1.118761499999999964e+00,1.778928200000000001e-02
1.118951699999999994e+00,1.897585699999999875e-02
1.119141900000000023e+00,2.022823300000000171e-02
1.119332100000000052e+00,2.154907500000000087e-02
1.119522300000000081e+00,2.294108599999999942e-02
1.119712500000000110e+00,2.440700900000000034e-02
1.119902699999999918e+00,2.594961499999999879e-02
1.120092899999999947e+00,2.757170800000000033e-02
1.120283099999999976e+00,2.927611100000000049e-02
1.120473300000000005e+00,3.106566599999999873e-02
1.120663500000000035e+00,3.294322499999999959e-02
1.120853600000000005e+00,3.491165000000000240e-02
1.121043800000000035e+00,3.697379800000000216e-02
1.121234000000000064e+00,3.913252100000000344e-02
1.121424200000000093e+00,4.139065900000000325e-02
1.121614399999999900e+00,4.375102799999999736e-02
1.121804599999999930e+00,4.621641700000000269e-02
1.121994799999999959e+00,4.878957999999999906e-02
1.122184999999999988e+00,5.147322599999999693e-02
1.122375200000000017e+00,5.427001199999999942e-02
1.122565400000000047e+00,5.718253499999999961e-02
1.122755600000000076e+00,6.021332299999999915e-02
1.122945800000000105e+00,6.336482899999999752e-02
1.123135999999999912e+00,6.663941600000000687e-02
1.123326199999999941e+00,7.003935699999999653e-02
1.123516399999999971e+00,7.356681700000000657e-02
1.123706600000000000e+00,7.722385199999999561e-02
1.123896800000000029e+00,8.101239500000000093e-02
1.124087000000000058e+00,8.493424900000000333e-02
1.124277200000000088e+00,8.899107800000000124e-02
1.124467399999999895e+00,9.318440100000000004e-02
1.124657599999999924e+00,9.751557700000000606e-02
1.124847699999999895e+00,1.019858000000000015e-01
1.125037899999999924e+00,1.065961099999999939e-01
1.125228099999999953e+00,1.113473299999999944e-01
1.125418299999999983e+00,1.162401400000000057e-01
1.125608500000000012e+00,1.212749800000000044e-01
1.125798700000000041e+00,1.264521299999999959e-01
1.125988900000000070e+00,1.317716300000000007e-01
1.126179100000000100e+00,1.372333199999999920e-01
1.126369299999999907e+00,1.428368399999999927e-01
1.126559499999999936e+00,1.485815699999999961e-01
1.126749699999999965e+00,1.544666700000000004e-01
1.126939899999999994e+00,1.604910999999999976e-01
1.127130100000000024e+00,1.666535500000000114e-01
1.127320300000000053e+00,1.729524699999999970e-01
1.127510500000000082e+00,1.793861099999999875e-01
1.127700699999999889e+00,1.859524200000000071e-01
1.127890899999999919e+00,1.926491700000000085e-01
1.128081099999999948e+00,1.994738400000000134e-01
1.128271299999999977e+00,2.064236999999999878e-01
1.128461500000000006e+00,2.134957700000000014e-01
1.128651700000000035e+00,2.206868200000000058e-01
1.128841800000000006e+00,2.279934200000000022e-01
1.129032000000000036e+00,2.354118900000000125e-01
1.129222200000000065e+00,2.429383099999999907e-01
1.129412400000000094e+00,2.505685799999999852e-01
1.129602599999999901e+00,2.582983500000000099e-01
1.129792799999999930e+00,2.661230900000000066e-01
1.129982999999999960e+00,2.740380700000000225e-01
1.130173199999999989e+00,2.820383399999999985e-01
1.130363400000000018e+00,2.901188100000000047e-01
1.130553600000000047e+00,2.982741899999999946e-01
1.130743800000000077e+00,3.064990400000000004e-01
1.130934000000000106e+00,3.147877700000000223e-01
1.131124199999999913e+00,3.231346500000000233e-01
1.131314399999999942e+00,3.315338299999999738e-01
1.131504599999999972e+00,3.399793199999999738e-01
1.131694800000000001e+00,3.484650499999999984e-01
1.131885000000000030e+00,3.569848700000000097e-01
1.132075200000000059e+00,3.655325200000000274e-01
1.132265400000000088e+00,3.741017200000000265e-01
1.132455599999999896e+00,3.826860999999999735e-01
1.132645799999999925e+00,3.912792900000000018e-01
1.132835899999999896e+00,3.998748699999999934e-01
1.133026099999999925e+00,4.084664499999999809e-01
1.133216299999999954e+00,4.170476300000000025e-01
1.133406499999999983e+00,4.256120199999999798e-01
1.133596700000000013e+00,4.341532900000000250e-01
1.133786900000000042e+00,4.426651400000000125e-01
1.133977100000000071e+00,4.511413699999999860e-01
1.134167300000000100e+00,4.595758200000000238e-01
1.134357499999999908e+00,4.679624399999999795e-01
1.134547699999999937e+00,4.762952899999999823e-01
1.134737899999999966e+00,4.845685499999999868e-01
1.134928099999999995e+00,4.927765100000000009e-01
1.135118300000000024e+00,5.009136199999999484e-01
1.135308500000000054e+00,5.089744699999999566e-01
1.135498700000000083e+00,5.169538399999999978e-01
1.135688899999999890e+00,5.248466499999999701e-01
1.135879099999999919e+00,5.326480300000000501e-01
1.136069299999999949e+00,5.403532800000000469e-01
1.136259499999999978e+00,5.479579199999999872e-01
1.136449700000000007e+00,5.554576700000000145e-01
1.136639799999999978e+00,5.628484499999999446e-01
1.136830000000000007e+00,5.701264299999999619e-01
1.137020200000000036e+00,5.772879800000000339e-01
1.137210400000000066e+00,5.843297100000000022e-01
1.137400600000000095e+00,5.912484599999999757e-01
1.137590799999999902e+00,5.980413199999999874e-01
1.137780999999999931e+00,6.047055999999999543e-01
1.137971199999999961e+00,6.112388699999999897e-01
1.138161399999999990e+00,6.176389199999999802e-01
1.138351600000000019e+00,6.239037899999999581e-01
1.138541800000000048e+00,6.300317800000000412e-01
1.138732000000000077e+00,6.360213999999999590e-01
1.138922200000000107e+00,6.418714199999999703e-01
1.139112399999999914e+00,6.475808199999999459e-01
1.139302599999999943e+00,6.531488399999999528e-01
1.139492799999999972e+00,6.585749300000000028e-01
1.139683000000000002e+00,6.638587599999999922e-01
1.139873200000000031e+00,6.690002200000000343e-01
1.140063400000000060e+00,6.739994299999999550e-01
1.140253600000000089e+00,6.788566999999999796e-01
1.140443799999999896e+00,6.835725400000000063e-01
1.140633900000000089e+00,6.881476499999999996e-01
1.140824099999999897e+00,6.925829199999999908e-01
1.141014299999999926e+00,6.968794299999999664e-01
1.141204499999999955e+00,7.010384100000000007e-01
1.141394699999999984e+00,7.050612600000000230e-01
1.141584900000000014e+00,7.089495399999999892e-01
1.141775100000000043e+00,7.127049500000000037e-01
1.141965300000000072e+00,7.163293200000000471e-01
1.142155500000000101e+00,7.198246200000000261e-01
1.142345699999999908e+00,7.231929400000000063e-01
1.142535899999999938e+00,7.264364599999999506e-01
1.142726099999999967e+00,7.295574799999999804e-01
1.142916299999999996e+00,7.325584000000000540e-01
1.143106500000000025e+00,7.354416700000000473e-01
1.143296700000000055e+00,7.382098499999999452e-01
1.143486900000000084e+00,7.408655600000000341e-01
1.143677099999999891e+00,7.434114499999999737e-01
1.143867299999999920e+00,7.458502599999999871e-01
1.144057499999999949e+00,7.481847400000000148e-01
1.144247699999999979e+00,7.504176999999999653e-01
1.144437900000000008e+00,7.525519499999999695e-01
1.144627999999999979e+00,7.545903400000000261e-01
1.144818200000000008e+00,7.565357200000000226e-01
1.145008400000000037e+00,7.583909599999999473e-01
1.145198600000000067e+00,7.601588999999999707e-01
1.145388800000000096e+00,7.618424099999999699e-01
1.145578999999999903e+00,7.634443199999999541e-01
1.145769199999999932e+00,7.649674400000000540e-01
1.145959399999999961e+00,7.664145799999999564e-01
1.146149599999999991e+00,7.677884999999999849e-01
1.146339800000000020e+00,7.690919299999999792e-01
1.146530000000000049e+00,7.703275600000000223e-01
1.146720200000000078e+00,7.714980599999999855e-01
1.146910400000000108e+00,7.726060200000000044e-01
1.147100599999999915e+00,7.736540100000000031e-01
1.147290799999999944e+00,7.746445299999999978e-01
1.147480999999999973e+00,7.755800299999999758e-01
1.147671200000000002e+00,7.764629299999999956e-01
1.147861400000000032e+00,7.772955400000000070e-01
1.148051600000000061e+00,7.780801499999999704e-01
1.148241800000000090e+00,7.788189800000000496e-01
1.148431900000000061e+00,7.795141700000000062e-01
1.148622100000000090e+00,7.801678300000000066e-01
1.148812299999999897e+00,7.807819599999999971e-01
1.149002499999999927e+00,7.813585400000000458e-01
1.149192699999999956e+00,7.818994500000000514e-01
1.149382899999999985e+00,7.824065199999999942e-01
1.149573100000000014e+00,7.828815199999999974e-01
1.149763300000000044e+00,7.833261400000000041e-01
1.149953500000000073e+00,7.837420099999999890e-01
1.150143700000000102e+00,7.841307100000000085e-01
1.150333899999999909e+00,7.844937400000000505e-01
1.150524099999999939e+00,7.848325299999999727e-01
1.150714299999999968e+00,7.851484800000000375e-01
1.150904499999999997e+00,7.854429000000000549e-01
1.151094700000000026e+00,7.857170599999999672e-01
1.151284900000000055e+00,7.859721600000000308e-01
1.151475100000000085e+00,7.862093500000000290e-01
1.151665299999999892e+00,7.864297099999999485e-01
1.151855499999999921e+00,7.866343000000000085e-01
1.152045699999999950e+00,7.868241000000000263e-01
1.152235899999999980e+00,7.870000499999999510e-01
1.152425999999999950e+00,7.871630299999999858e-01
1.152616199999999980e+00,7.873139000000000109e-01
1.152806400000000009e+00,7.874534300000000098e-01
1.152996600000000038e+00,7.875824099999999550e-01
1.153186800000000067e+00,7.877015200000000439e-01
1.153377000000000097e+00,7.878114400000000295e-01
1.153567199999999904e+00,7.879128199999999582e-01
1.153757399999999933e+00,7.880062300000000297e-01
1.153947599999999962e+00,7.880922500000000497e-01
