#wavelength,transmission
1.146840099999999918e+00,4.686800500000000258e-15
1.146906800000000004e+00,5.082868100000000044e-15
1.146973599999999927e+00,5.478935799999999812e-15
1.147040300000000013e+00,5.875003400000000387e-15
1.147107099999999935e+00,6.337082400000000376e-15
1.147173800000000021e+00,6.832166899999999714e-15
1.147240599999999944e+00,7.360257100000000731e-15
1.147307300000000030e+00,7.921352900000000291e-15
1.147374099999999952e+00,8.548460000000000071e-15
1.147440800000000038e+00,9.208572800000000742e-15
1.147507599999999961e+00,9.901691200000000744e-15
1.147574300000000047e+00,1.066082099999999937e-14
1.147640999999999911e+00,1.148596199999999982e-14
1.147707800000000056e+00,1.234410799999999970e-14
1.147774499999999920e+00,1.330127200000000051e-14
1.147841300000000064e+00,1.432444700000000003e-14
1.147907999999999928e+00,1.541363299999999982e-14
1.147974800000000073e+00,1.656883000000000146e-14
1.148041499999999937e+00,1.782304400000000105e-14
1.148108300000000082e+00,1.920928100000000102e-14
1.148174999999999946e+00,2.066152899999999969e-14
1.148241800000000090e+00,2.221279399999999946e-14
1.148308499999999954e+00,2.389608099999999979e-14
1.148375300000000099e+00,2.567838600000000105e-14
1.148441999999999963e+00,2.765872400000000156e-14
1.148508700000000049e+00,2.970507399999999743e-14
1.148575499999999971e+00,3.194945700000000201e-14
1.148642200000000058e+00,3.435886800000000009e-14
1.148708999999999980e+00,3.693330799999999781e-14
1.148775700000000066e+00,3.967277600000000164e-14
1.148842499999999989e+00,4.264328299999999767e-14
1.148909200000000075e+00,4.587783600000000075e-14
1.148975999999999997e+00,4.927741599999999751e-14
1.149042700000000083e+00,5.294104200000000132e-14
1.149109500000000006e+00,5.690171900000000215e-14
1.149176200000000092e+00,6.112643999999999778e-14
1.149242899999999956e+00,6.564821199999999674e-14
1.149309700000000101e+00,7.050004100000000145e-14
1.149376399999999965e+00,7.574793700000000448e-14
1.149443200000000109e+00,8.132589000000000063e-14
1.149509899999999973e+00,8.733291599999999752e-14
1.149576699999999896e+00,9.380202099999999755e-14
1.149643399999999982e+00,1.007002000000000044e-13
1.149710199999999904e+00,1.081264699999999941e-13
1.149776899999999991e+00,1.160478200000000091e-13
1.149843699999999913e+00,1.245632700000000059e-13
1.149910399999999999e+00,1.336728300000000079e-13
1.149977199999999922e+00,1.434755099999999986e-13
1.150043900000000008e+00,1.539382899999999907e-13
1.150110600000000094e+00,1.651932099999999910e-13
1.150177400000000016e+00,1.772402699999999994e-13
1.150244100000000103e+00,1.901124700000000069e-13
1.150310900000000025e+00,2.039748400000000003e-13
1.150377599999999889e+00,2.187613600000000014e-13
1.150444400000000034e+00,2.346040700000000170e-13
1.150511099999999898e+00,2.516019699999999945e-13
1.150577900000000042e+00,2.697880799999999968e-13
1.150644599999999906e+00,2.892614000000000219e-13
1.150711400000000051e+00,3.101209700000000100e-13
1.150778099999999915e+00,3.324327800000000076e-13
1.150844800000000001e+00,3.563618699999999871e-13
1.150911599999999924e+00,3.819412299999999792e-13
1.150978300000000010e+00,4.093359099999999923e-13
1.151045099999999932e+00,4.386449200000000098e-13
1.151111800000000018e+00,4.700332799999999825e-13
1.151178599999999941e+00,5.036000099999999804e-13
1.151245300000000027e+00,5.395101499999999758e-13
1.151312099999999949e+00,5.779617099999999502e-13
1.151378800000000036e+00,6.190537300000000455e-13
1.151445599999999958e+00,6.630502500000000302e-13
1.151512300000000044e+00,7.100832799999999542e-13
1.151579099999999967e+00,7.603838700000000098e-13
1.151645800000000053e+00,8.141830599999999996e-13
1.151712499999999917e+00,8.717448899999999949e-13
1.151779300000000061e+00,9.332343900000000834e-13
1.151845999999999925e+00,9.989816199999999359e-13
1.151912800000000070e+00,1.069283599999999921e-12
1.151979499999999934e+00,1.144437500000000090e-12
1.152046300000000079e+00,1.224707199999999937e-12
1.152112999999999943e+00,1.310521799999999983e-12
1.152179800000000087e+00,1.402277499999999929e-12
1.152246499999999951e+00,1.500238200000000049e-12
1.152313300000000096e+00,1.604932099999999908e-12
1.152379999999999960e+00,1.716788199999999969e-12
1.152446700000000046e+00,1.836268599999999808e-12
1.152513499999999969e+00,1.963868400000000078e-12
1.152580200000000055e+00,2.100148700000000151e-12
1.152646999999999977e+00,2.245703600000000072e-12
1.152713700000000063e+00,2.401160099999999895e-12
1.152780499999999986e+00,2.567079400000000061e-12
1.152847200000000072e+00,2.744220700000000196e-12
1.152913999999999994e+00,2.933375999999999879e-12
1.152980700000000081e+00,3.135271499999999885e-12
1.153047500000000003e+00,3.350732299999999915e-12
1.153114200000000089e+00,3.580682599999999932e-12
1.153181000000000012e+00,3.826079499999999903e-12
1.153247700000000098e+00,4.087946199999999992e-12
1.153314399999999962e+00,4.367305899999999953e-12
1.153381200000000106e+00,4.665346799999999877e-12
1.153447899999999970e+00,4.983257099999999854e-12
1.153514699999999893e+00,5.322389999999999902e-12
1.153581399999999979e+00,5.684098800000000098e-12
1.153648199999999902e+00,6.069802699999999787e-12
1.153714899999999988e+00,6.481119000000000386e-12
1.153781699999999910e+00,6.919664900000000023e-12
1.153848399999999996e+00,7.387255700000000515e-12
1.153915199999999919e+00,7.885706899999999755e-12
1.153981900000000005e+00,8.417031600000000653e-12
1.154048600000000091e+00,8.983342299999999681e-12
1.154115400000000013e+00,9.586916399999999646e-12
1.154182100000000100e+00,1.023009699999999928e-11
1.154248900000000022e+00,1.091549199999999991e-11
1.154315600000000108e+00,1.164570899999999949e-11
1.154382400000000031e+00,1.242365200000000063e-11
1.154449099999999895e+00,1.325242300000000071e-11
1.154515900000000039e+00,1.413519199999999921e-11
1.154582599999999903e+00,1.507539099999999982e-11
1.154649400000000048e+00,1.607664999999999936e-11
1.154716099999999912e+00,1.714292999999999994e-11
1.154782900000000057e+00,1.827825799999999976e-11
1.154849599999999921e+00,1.948698999999999955e-11
1.154916300000000007e+00,2.077381400000000101e-11
1.154983099999999929e+00,2.214364699999999914e-11
1.155049800000000015e+00,2.360167099999999971e-11
1.155116599999999938e+00,2.515343100000000157e-11
1.155183300000000024e+00,2.680480200000000019e-11
1.155250099999999946e+00,2.856202200000000025e-11
1.155316800000000033e+00,3.043169300000000007e-11
1.155383599999999955e+00,3.242084299999999831e-11
1.155450300000000041e+00,3.453690099999999895e-11
1.155517099999999964e+00,3.678778599999999800e-11
1.155583800000000050e+00,3.918185000000000232e-11
1.155650599999999972e+00,4.172790500000000000e-11
1.155717300000000058e+00,4.443548899999999752e-11
1.155783999999999923e+00,4.731443899999999951e-11
1.155850800000000067e+00,5.037544800000000065e-11
1.155917499999999931e+00,5.362960599999999862e-11
1.155984300000000076e+00,5.708886100000000174e-11
1.156050999999999940e+00,6.076582099999999863e-11
1.156117800000000084e+00,6.467375400000000348e-11
1.156184499999999948e+00,6.882685299999999578e-11
1.156251300000000093e+00,7.324010299999999860e-11
1.156317999999999957e+00,7.792927999999999406e-11
1.156384800000000102e+00,8.291121699999999927e-11
1.156451499999999966e+00,8.820376999999999505e-11
1.156518200000000052e+00,9.382571900000000446e-11
1.156584999999999974e+00,9.979703299999999377e-11
1.156651700000000060e+00,1.061388700000000017e-10
1.156718499999999983e+00,1.128735399999999953e-10
1.156785200000000069e+00,1.200247400000000119e-10
1.156851999999999991e+00,1.276176199999999907e-10
1.156918700000000078e+00,1.356785799999999980e-10
1.156985500000000000e+00,1.442357899999999973e-10
1.157052200000000086e+00,1.533189400000000022e-10
1.157119000000000009e+00,1.629594599999999972e-10
1.157185700000000095e+00,1.731906100000000017e-10
1.157252500000000017e+00,1.840475899999999921e-10
1.157319200000000103e+00,1.955676400000000106e-10
1.157385899999999967e+00,2.077900900000000008e-10
1.157452699999999890e+00,2.207565500000000073e-10
1.157519399999999976e+00,2.345111899999999759e-10
1.157586199999999899e+00,2.491004100000000150e-10
1.157652899999999985e+00,2.645735200000000130e-10
1.157719699999999907e+00,2.809825700000000185e-10
1.157786399999999993e+00,2.983825499999999934e-10
1.157853199999999916e+00,3.168315699999999947e-10
1.157919900000000002e+00,3.363911400000000258e-10
1.157986699999999924e+00,3.571262100000000081e-10
1.158053400000000011e+00,3.791053199999999835e-10
1.158120100000000097e+00,4.024011000000000157e-10
1.158186900000000019e+00,4.270900399999999927e-10
1.158253600000000105e+00,4.532530799999999802e-10
1.158320400000000028e+00,4.809757700000000037e-10
1.158387099999999892e+00,5.103482799999999900e-10
1.158453900000000036e+00,5.414659900000000169e-10
1.158520599999999900e+00,5.744295500000000122e-10
1.158587400000000045e+00,6.093452600000000502e-10
1.158654099999999909e+00,6.463253000000000325e-10
1.158720900000000054e+00,6.854881699999999932e-10
1.158787599999999918e+00,7.269588600000000296e-10
1.158854400000000062e+00,7.708693999999999602e-10
1.158921099999999926e+00,8.173589900000000071e-10
1.158987800000000012e+00,8.665746200000000426e-10
1.159054599999999935e+00,9.186713800000000396e-10
1.159121300000000021e+00,9.738127799999999460e-10
1.159188099999999944e+00,1.032171500000000027e-09
1.159254800000000030e+00,1.093929600000000044e-09
1.159321599999999952e+00,1.159278900000000014e-09
1.159388300000000038e+00,1.228422100000000032e-09
1.159455099999999961e+00,1.301572699999999914e-09
1.159521800000000047e+00,1.378955700000000038e-09
1.159588599999999969e+00,1.460808600000000013e-09
1.159655300000000056e+00,1.547381599999999979e-09
1.159721999999999920e+00,1.638938500000000068e-09
1.159788800000000064e+00,1.735757299999999978e-09
1.159855499999999928e+00,1.838131000000000050e-09
1.159922300000000073e+00,1.946368400000000080e-09
1.159988999999999937e+00,2.060794900000000191e-09
1.160055800000000081e+00,2.181753200000000026e-09
1.160122499999999945e+00,2.309604300000000095e-09
1.160189300000000090e+00,2.444728900000000160e-09
1.160255999999999954e+00,2.587527300000000026e-09
1.160322800000000099e+00,2.738421699999999860e-09
1.160389499999999963e+00,2.897856399999999845e-09
1.160456300000000107e+00,3.066299299999999828e-09
1.160522999999999971e+00,3.244243000000000085e-09
1.160589700000000057e+00,3.432206000000000049e-09
1.160656499999999980e+00,3.630734500000000125e-09
1.160723200000000066e+00,3.840402800000000163e-09
1.160789999999999988e+00,4.061815900000000286e-09
1.160856700000000075e+00,4.295610199999999874e-09
1.160923499999999997e+00,4.542455099999999728e-09
1.160990200000000083e+00,4.803055500000000382e-09
1.161057000000000006e+00,5.078152499999999851e-09
1.161123700000000092e+00,5.368525800000000180e-09
1.161190500000000014e+00,5.674995699999999815e-09
1.161257200000000100e+00,5.998424599999999866e-09
1.161323899999999965e+00,6.339719800000000043e-09
1.161390700000000109e+00,6.699835099999999985e-09
1.161457399999999973e+00,7.079773300000000066e-09
1.161524199999999896e+00,7.480588900000000594e-09
1.161590899999999982e+00,7.903390099999999971e-09
1.161657699999999904e+00,8.349342200000000740e-09
1.161724399999999990e+00,8.819669299999999369e-09
1.161791199999999913e+00,9.315658300000000767e-09
1.161857899999999999e+00,9.838661399999999225e-09
1.161924699999999921e+00,1.039009899999999919e-08
1.161991400000000008e+00,1.097146400000000011e-08
1.162058199999999930e+00,1.158432400000000041e-08
1.162124900000000016e+00,1.223032600000000068e-08
1.162191600000000102e+00,1.291119999999999983e-08
1.162258400000000025e+00,1.362876199999999939e-08
1.162325100000000111e+00,1.438492000000000041e-08
1.162391900000000033e+00,1.518167599999999918e-08
1.162458599999999898e+00,1.602113300000000103e-08
1.162525400000000042e+00,1.690549899999999843e-08
1.162592099999999906e+00,1.783708999999999842e-08
1.162658900000000051e+00,1.881833799999999871e-08
1.162725599999999915e+00,1.985179499999999886e-08
1.162792400000000059e+00,2.094013899999999888e-08
1.162859099999999923e+00,2.208617900000000085e-08
1.162925900000000068e+00,2.329286399999999853e-08
1.162992599999999932e+00,2.456328600000000149e-08
1.163059300000000018e+00,2.590068800000000125e-08
1.163126099999999941e+00,2.730847400000000096e-08
1.163192800000000027e+00,2.879020999999999916e-08
1.163259599999999949e+00,3.034963699999999724e-08
1.163326300000000035e+00,3.199068000000000228e-08
1.163393099999999958e+00,3.371745099999999828e-08
1.163459800000000044e+00,3.553426099999999958e-08
1.163526599999999966e+00,3.744562900000000079e-08
1.163593300000000053e+00,3.945629299999999685e-08
1.163660099999999975e+00,4.157121700000000182e-08
1.163726800000000061e+00,4.379560200000000272e-08
1.163793499999999925e+00,4.613489900000000008e-08
1.163860300000000070e+00,4.859481899999999793e-08
1.163926999999999934e+00,5.118134300000000032e-08
1.163993800000000078e+00,5.390073800000000322e-08
1.164060499999999942e+00,5.675956600000000066e-08
1.164127300000000087e+00,5.976470199999999713e-08
1.164193999999999951e+00,6.292334199999999689e-08
1.164260800000000096e+00,6.624302299999999706e-08
1.164327499999999960e+00,6.973163500000000474e-08
1.164394300000000104e+00,7.339743800000000600e-08
1.164460999999999968e+00,7.724907699999999384e-08
1.164527799999999891e+00,8.129560200000000102e-08
1.164594499999999977e+00,8.554648399999999929e-08
1.164661200000000063e+00,9.001163099999999713e-08
1.164727999999999986e+00,9.470141500000000534e-08
1.164794700000000072e+00,9.962668400000000119e-08
1.164861499999999994e+00,1.047987900000000035e-07
1.164928200000000080e+00,1.102295899999999967e-07
1.164995000000000003e+00,1.159315200000000013e-07
1.165061700000000089e+00,1.219175600000000122e-07
1.165128500000000011e+00,1.282012800000000075e-07
1.165195200000000098e+00,1.347968900000000105e-07
1.165262000000000020e+00,1.417192299999999873e-07
1.165328700000000106e+00,1.489838100000000048e-07
1.165395399999999970e+00,1.566068599999999892e-07
1.165462199999999893e+00,1.646053299999999900e-07
1.165528899999999979e+00,1.729969399999999913e-07
1.165595699999999901e+00,1.818002000000000108e-07
1.165662399999999987e+00,1.910344699999999995e-07
1.165729199999999910e+00,2.007199400000000074e-07
1.165795899999999996e+00,2.108777400000000006e-07
1.165862699999999919e+00,2.215299200000000001e-07
1.165929400000000005e+00,2.326995199999999918e-07
1.165996199999999927e+00,2.444106000000000088e-07
1.166062900000000013e+00,2.566882599999999922e-07
1.166129699999999936e+00,2.695587599999999883e-07
1.166196400000000022e+00,2.830494599999999835e-07
1.166263100000000108e+00,2.971889699999999989e-07
1.166329900000000031e+00,3.120071199999999812e-07
1.166396599999999895e+00,3.275350500000000236e-07
1.166463400000000039e+00,3.438052700000000005e-07
1.166530099999999903e+00,3.608517100000000143e-07
1.166596900000000048e+00,3.787097499999999743e-07
1.166663599999999912e+00,3.974162999999999930e-07
1.166730400000000056e+00,4.170099099999999910e-07
1.166797099999999920e+00,4.375307299999999756e-07
1.166863900000000065e+00,4.590206699999999855e-07
1.166930599999999929e+00,4.815234399999999714e-07
1.166997300000000015e+00,5.050845999999999778e-07
1.167064099999999938e+00,5.297516800000000481e-07
1.167130800000000024e+00,5.555742000000000331e-07
1.167197599999999946e+00,5.826038099999999926e-07
1.167264300000000032e+00,6.108943399999999537e-07
1.167331099999999955e+00,6.405018799999999885e-07
1.167397800000000041e+00,6.714849100000000512e-07
1.167464599999999963e+00,7.039043400000000169e-07
1.167531300000000050e+00,7.378236600000000139e-07
1.167598099999999972e+00,7.733089899999999700e-07
1.167664800000000058e+00,8.104292300000000506e-07
1.167731599999999981e+00,8.492561500000000326e-07
1.167798300000000067e+00,8.898644599999999813e-07
1.167864999999999931e+00,9.323320100000000233e-07
1.167931800000000075e+00,9.767398500000000348e-07
1.167998499999999940e+00,1.023172299999999896e-06
1.168065300000000084e+00,1.071717400000000062e-06
1.168131999999999948e+00,1.122466299999999990e-06
1.168198800000000093e+00,1.175514500000000093e-06
1.168265499999999957e+00,1.230960800000000049e-06
1.168332300000000101e+00,1.288908499999999977e-06
1.168398999999999965e+00,1.349464799999999957e-06
1.168465800000000110e+00,1.412741299999999934e-06
1.168532499999999974e+00,1.478854200000000026e-06
1.168599200000000060e+00,1.547924199999999942e-06
1.168665999999999983e+00,1.620076900000000017e-06
1.168732700000000069e+00,1.695443099999999963e-06
1.168799499999999991e+00,1.774158699999999995e-06
1.168866200000000077e+00,1.856364900000000074e-06
1.168933000000000000e+00,1.942208600000000082e-06
1.168999700000000086e+00,2.031842500000000190e-06
1.169066500000000008e+00,2.125425500000000188e-06
1.169133200000000095e+00,2.223122499999999822e-06
1.169200000000000017e+00,2.325105099999999847e-06
1.169266700000000103e+00,2.431551300000000095e-06
1.169333500000000026e+00,2.542646500000000136e-06
1.169400199999999890e+00,2.658582900000000065e-06
1.169466899999999976e+00,2.779560499999999897e-06
1.169533699999999898e+00,2.905786800000000173e-06
1.169600399999999985e+00,3.037477499999999837e-06
1.169667199999999907e+00,3.174856500000000051e-06
1.169733899999999993e+00,3.318156300000000139e-06
1.169800699999999916e+00,3.467618499999999824e-06
1.169867400000000002e+00,3.623493600000000198e-06
1.169934199999999924e+00,3.786042000000000147e-06
1.170000900000000010e+00,3.955533700000000349e-06
1.170067699999999933e+00,4.132249099999999820e-06
1.170134400000000019e+00,4.316479100000000087e-06
1.170201199999999941e+00,4.508525699999999747e-06
1.170267900000000028e+00,4.708702099999999906e-06
1.170334599999999892e+00,4.917333400000000369e-06
1.170401400000000036e+00,5.134756499999999701e-06
1.170468099999999900e+00,5.361321300000000422e-06
1.170534900000000045e+00,5.597390499999999818e-06
1.170601599999999909e+00,5.843339999999999860e-06
1.170668400000000053e+00,6.099559999999999754e-06
1.170735099999999917e+00,6.366454800000000308e-06
1.170801900000000062e+00,6.644443600000000048e-06
1.170868599999999926e+00,6.933960900000000062e-06
1.170935400000000071e+00,7.235457200000000186e-06
1.171002099999999935e+00,7.549399199999999729e-06
1.171068800000000021e+00,7.876270800000000253e-06
1.171135599999999943e+00,8.216573099999999646e-06
1.171202300000000029e+00,8.570825400000000829e-06
1.171269099999999952e+00,8.939565800000000379e-06
1.171335800000000038e+00,9.323351500000000210e-06
1.171402599999999961e+00,9.722759700000000246e-06
1.171469300000000047e+00,1.013838799999999987e-05
1.171536099999999969e+00,1.057085600000000035e-05
1.171602800000000055e+00,1.102080400000000054e-05
1.171669599999999978e+00,1.148889500000000073e-05
1.171736300000000064e+00,1.197581800000000068e-05
1.171803099999999986e+00,1.248228199999999983e-05
1.171869800000000073e+00,1.300902299999999988e-05
1.171936499999999937e+00,1.355680399999999964e-05
1.172003300000000081e+00,1.412641099999999921e-05
1.172069999999999945e+00,1.471866100000000019e-05
1.172136800000000090e+00,1.533439699999999853e-05
1.172203499999999954e+00,1.597449199999999905e-05
1.172270300000000098e+00,1.663984700000000142e-05
1.172336999999999962e+00,1.733139699999999991e-05
1.172403800000000107e+00,1.805010700000000103e-05
1.172470499999999971e+00,1.879697399999999863e-05
1.172537299999999894e+00,1.957303099999999858e-05
1.172603999999999980e+00,2.037934400000000022e-05
1.172670700000000066e+00,2.121701600000000076e-05
1.172737499999999988e+00,2.208718599999999924e-05
1.172804200000000074e+00,2.299103400000000028e-05
1.172870999999999997e+00,2.392977400000000139e-05
1.172937700000000083e+00,2.490466599999999924e-05
1.173004500000000005e+00,2.591700800000000128e-05
1.173071200000000092e+00,2.696814300000000117e-05
1.173138000000000014e+00,2.805945600000000093e-05
1.173204700000000100e+00,2.919238000000000052e-05
1.173271500000000023e+00,3.036839299999999966e-05
1.173338200000000109e+00,3.158902100000000277e-05
1.173405000000000031e+00,3.285584199999999963e-05
