#wavelength,transmission
7.885000100000000289e-01,1.409452200000000006e-09
7.885914299999999821e-01,1.526752300000000036e-09
7.886828500000000464e-01,1.653536499999999980e-09
7.887742699999999996e-01,1.790548300000000063e-09
7.888656899999999528e-01,1.938586899999999862e-09
7.889571100000000170e-01,2.098512399999999963e-09
7.890485400000000205e-01,2.271249499999999830e-09
7.891399599999999737e-01,2.457792399999999988e-09
7.892313800000000379e-01,2.659209699999999865e-09
7.893227999999999911e-01,2.876650100000000019e-09
7.894142200000000553e-01,3.111347700000000108e-09
7.895056400000000085e-01,3.364628600000000166e-09
7.895970599999999617e-01,3.637917000000000063e-09
7.896884800000000260e-01,3.932742600000000216e-09
7.897798999999999792e-01,4.250748000000000219e-09
7.898713200000000434e-01,4.593696399999999647e-09
7.899627399999999966e-01,4.963480599999999682e-09
7.900541599999999498e-01,5.362131700000000098e-09
7.901455800000000140e-01,5.791829300000000031e-09
7.902369999999999672e-01,6.254911300000000273e-09
7.903284299999999707e-01,6.753885600000000387e-09
7.904198500000000349e-01,7.291441399999999826e-09
7.905112699999999881e-01,7.870462100000000393e-09
7.906026900000000524e-01,8.494038700000000582e-09
7.906941100000000056e-01,9.165484100000000142e-09
7.907855299999999588e-01,9.888348300000000782e-09
7.908769500000000230e-01,1.066643500000000071e-08
7.909683699999999762e-01,1.150381799999999986e-08
7.910597900000000404e-01,1.240486199999999992e-08
7.911512099999999936e-01,1.337423899999999960e-08
7.912426299999999468e-01,1.441695200000000057e-08
7.913340500000000111e-01,1.553835500000000057e-08
7.914254699999999643e-01,1.674417899999999841e-08
7.915168900000000285e-01,1.804055599999999996e-08
7.916083099999999817e-01,1.943404599999999863e-08
7.916997399999999852e-01,2.093166600000000116e-08
7.917911600000000494e-01,2.254092000000000078e-08
7.918825800000000026e-01,2.426983100000000066e-08
7.919739999999999558e-01,2.612697699999999892e-08
7.920654200000000200e-01,2.812152499999999942e-08
7.921568399999999732e-01,3.026327100000000142e-08
7.922482600000000375e-01,3.256268300000000002e-08
7.923396799999999907e-01,3.503094199999999920e-08
7.924311000000000549e-01,3.767999000000000070e-08
7.925225200000000081e-01,4.052257899999999976e-08
7.926139399999999613e-01,4.357232399999999873e-08
7.927053600000000255e-01,4.684375899999999840e-08
7.927967799999999787e-01,5.035239199999999906e-08
7.928882000000000430e-01,5.411477500000000290e-08
7.929796300000000464e-01,5.814856300000000307e-08
7.930710499999999996e-01,6.247259000000000130e-08
7.931624699999999528e-01,6.710694000000000070e-08
7.932538900000000170e-01,7.207302899999999890e-08
7.933453099999999703e-01,7.739368700000000085e-08
7.934367300000000345e-01,8.309324599999999403e-08
7.935281499999999877e-01,8.919763900000000311e-08
7.936195700000000519e-01,9.573449200000000016e-08
7.937109900000000051e-01,1.027332399999999946e-07
7.938024099999999583e-01,1.102252200000000000e-07
7.938938300000000226e-01,1.182438300000000019e-07
7.939852499999999758e-01,1.268245899999999941e-07
7.940766700000000400e-01,1.360053300000000118e-07
7.941680899999999932e-01,1.458263199999999944e-07
7.942595199999999966e-01,1.563303999999999928e-07
7.943509399999999498e-01,1.675631299999999981e-07
7.944423600000000141e-01,1.795729999999999894e-07
7.945337799999999673e-01,1.924115600000000080e-07
7.946252000000000315e-01,2.061336200000000093e-07
7.947166199999999847e-01,2.207974699999999994e-07
7.948080400000000489e-01,2.364650299999999965e-07
7.948994600000000021e-01,2.532021199999999785e-07
7.949908799999999554e-01,2.710786799999999923e-07
7.950823000000000196e-01,2.901689899999999993e-07
7.951737199999999728e-01,3.105519500000000176e-07
7.952651400000000370e-01,3.323113299999999963e-07
7.953565599999999902e-01,3.555360799999999872e-07
7.954479800000000544e-01,3.803206199999999795e-07
7.955394099999999469e-01,4.067651399999999816e-07
7.956308300000000111e-01,4.349759600000000039e-07
7.957222499999999643e-01,4.650658800000000050e-07
7.958136700000000285e-01,4.971545199999999600e-07
7.959050899999999817e-01,5.313687599999999748e-07
7.959965100000000460e-01,5.678431200000000230e-07
7.960879299999999992e-01,6.067201999999999538e-07
7.961793499999999524e-01,6.481511200000000298e-07
7.962707700000000166e-01,6.922960600000000265e-07
7.963621899999999698e-01,7.393246800000000150e-07
7.964536100000000340e-01,7.894167399999999641e-07
7.965450299999999872e-01,8.427625900000000354e-07
7.966364500000000515e-01,8.995637899999999737e-07
7.967278700000000047e-01,9.600337499999999459e-07
7.968193000000000081e-01,1.024398300000000068e-06
7.969107199999999613e-01,1.092896499999999955e-06
7.970021400000000256e-01,1.165781300000000058e-06
7.970935599999999788e-01,1.243320200000000029e-06
7.971849800000000430e-01,1.325796299999999999e-06
7.972763999999999962e-01,1.413508599999999960e-06
7.973678199999999494e-01,1.506773700000000013e-06
7.974592400000000136e-01,1.605925900000000091e-06
7.975506599999999668e-01,1.711318700000000102e-06
7.976420800000000311e-01,1.823325700000000028e-06
7.977334999999999843e-01,1.942341199999999973e-06
7.978249200000000485e-01,2.068782300000000164e-06
7.979163400000000017e-01,2.203088800000000163e-06
7.980077599999999549e-01,2.345725699999999888e-06
7.980991800000000191e-01,2.497183399999999917e-06
7.981906100000000226e-01,2.657979699999999847e-06
7.982820299999999758e-01,2.828661100000000045e-06
7.983734500000000400e-01,3.009804000000000076e-06
7.984648699999999932e-01,3.202016500000000143e-06
7.985562899999999464e-01,3.405939900000000184e-06
7.986477100000000107e-01,3.622250500000000040e-06
7.987391299999999639e-01,3.851661099999999822e-06
7.988305500000000281e-01,4.094923299999999778e-06
7.989219699999999813e-01,4.352828800000000353e-06
7.990133900000000455e-01,4.626212200000000064e-06
7.991048099999999987e-01,4.915952300000000214e-06
7.991962299999999519e-01,5.222974799999999865e-06
7.992876500000000162e-01,5.548254600000000369e-06
7.993790699999999694e-01,5.892817899999999856e-06
7.994704999999999728e-01,6.257745099999999942e-06
7.995619200000000371e-01,6.644173200000000038e-06
7.996533399999999903e-01,7.053298300000000062e-06
7.997447600000000545e-01,7.486379000000000071e-06
7.998361800000000077e-01,7.944739000000000372e-06
7.999275999999999609e-01,8.429770199999999639e-06
8.000190200000000251e-01,8.942936300000000349e-06
8.001104399999999783e-01,9.485775599999999460e-06
8.002018600000000426e-01,1.005990500000000037e-05
8.002932799999999958e-01,1.066702400000000035e-05
8.003846999999999490e-01,1.130891599999999986e-05
8.004761200000000132e-01,1.198745800000000011e-05
8.005675399999999664e-01,1.270461700000000013e-05
8.006589600000000306e-01,1.346246199999999965e-05
8.007503900000000341e-01,1.426316099999999922e-05
8.008418099999999873e-01,1.510899400000000078e-05
8.009332300000000515e-01,1.600234900000000165e-05
8.010246500000000047e-01,1.694573499999999845e-05
8.011160699999999579e-01,1.794178199999999897e-05
8.012074900000000222e-01,1.899324700000000162e-05
8.012989099999999754e-01,2.010302399999999945e-05
8.013903300000000396e-01,2.127414300000000114e-05
8.014817499999999928e-01,2.250978399999999875e-05
8.015731699999999460e-01,2.381327599999999884e-05
8.016645900000000102e-01,2.518810799999999882e-05
8.017560099999999634e-01,2.663793400000000089e-05
8.018474300000000277e-01,2.816658199999999974e-05
8.019388499999999809e-01,2.977805999999999929e-05
8.020302799999999843e-01,3.147656300000000162e-05
8.021217000000000485e-01,3.326648200000000151e-05
8.022131200000000018e-01,3.515241199999999855e-05
8.023045399999999550e-01,3.713916200000000117e-05
8.023959600000000192e-01,3.923175900000000054e-05
8.024873799999999724e-01,4.143546400000000149e-05
8.025788000000000366e-01,4.375577700000000253e-05
8.026702199999999898e-01,4.619844499999999776e-05
8.027616400000000541e-01,4.876947899999999704e-05
8.028530600000000073e-01,5.147515899999999923e-05
8.029444799999999605e-01,5.432204399999999967e-05
8.030359000000000247e-01,5.731698800000000079e-05
8.031273199999999779e-01,6.046714900000000324e-05
8.032187400000000421e-01,6.378000000000000260e-05
8.033101599999999953e-01,6.726334199999999843e-05
8.034015899999999988e-01,7.092531900000000208e-05
8.034930099999999520e-01,7.477442900000000629e-05
8.035844300000000162e-01,7.881953700000000104e-05
8.036758499999999694e-01,8.306989100000000442e-05
8.037672700000000336e-01,8.753513600000000677e-05
8.038586899999999869e-01,9.222532699999999996e-05
8.039501100000000511e-01,9.715095000000000197e-05
8.040415300000000043e-01,1.023229299999999978e-04
8.041329499999999575e-01,1.077526499999999991e-04
8.042243700000000217e-01,1.134519799999999959e-04
8.043157899999999749e-01,1.194332699999999984e-04
8.044072100000000392e-01,1.257093900000000124e-04
8.044986299999999924e-01,1.322937299999999989e-04
8.045900499999999456e-01,1.392002499999999993e-04
8.046814799999999490e-01,1.464434600000000123e-04
8.047729000000000132e-01,1.540384699999999970e-04
8.048643199999999664e-01,1.620009900000000090e-04
8.049557400000000307e-01,1.703473599999999987e-04
8.050471599999999839e-01,1.790945900000000040e-04
8.051385800000000481e-01,1.882603399999999865e-04
8.052300000000000013e-01,1.978629799999999980e-04
8.053214199999999545e-01,2.079216099999999922e-04
8.054128400000000187e-01,2.184560700000000018e-04
8.055042599999999720e-01,2.294869600000000042e-04
8.055956800000000362e-01,2.410356899999999928e-04
8.056870999999999894e-01,2.531244800000000041e-04
8.057785200000000536e-01,2.657763999999999851e-04
8.058699400000000068e-01,2.790154200000000270e-04
8.059613700000000103e-01,2.928663800000000242e-04
8.060527899999999635e-01,3.073550799999999928e-04
8.061442100000000277e-01,3.225082700000000014e-04
8.062356299999999809e-01,3.383536900000000121e-04
8.063270500000000451e-01,3.549200999999999767e-04
8.064184699999999983e-01,3.722373499999999912e-04
8.065098899999999515e-01,3.903363199999999931e-04
8.066013100000000158e-01,4.092490500000000014e-04
8.066927299999999690e-01,4.290087400000000073e-04
8.067841500000000332e-01,4.496497400000000152e-04
8.068755699999999864e-01,4.712076400000000075e-04
8.069669900000000506e-01,4.937193200000000162e-04
8.070584100000000038e-01,5.172228999999999976e-04
8.071498299999999571e-01,5.417578599999999488e-04
8.072412599999999605e-01,5.673650599999999905e-04
8.073326800000000247e-01,5.940867400000000419e-04
8.074240999999999779e-01,6.219666100000000031e-04
8.075155200000000422e-01,6.510498600000000401e-04
8.076069399999999954e-01,6.813831999999999918e-04
8.076983599999999486e-01,7.130148999999999689e-04
8.077897800000000128e-01,7.459948700000000339e-04
8.078811999999999660e-01,7.803746500000000247e-04
8.079726200000000302e-01,8.162074699999999653e-04
8.080640399999999834e-01,8.535483200000000027e-04
8.081554600000000477e-01,8.924539499999999733e-04
8.082468800000000009e-01,9.329829600000000191e-04
8.083382999999999541e-01,9.751958000000000458e-04
8.084297200000000183e-01,1.019154900000000070e-03
8.085211500000000218e-01,1.064924500000000033e-03
8.086125699999999750e-01,1.112570999999999916e-03
8.087039900000000392e-01,1.162162999999999911e-03
8.087954099999999924e-01,1.213770799999999922e-03
8.088868299999999456e-01,1.267467100000000020e-03
8.089782500000000098e-01,1.323327000000000010e-03
8.090696699999999630e-01,1.381427499999999912e-03
8.091610900000000273e-01,1.441848099999999949e-03
8.092525099999999805e-01,1.504670600000000040e-03
8.093439300000000447e-01,1.569979300000000095e-03
8.094353499999999979e-01,1.637860799999999936e-03
8.095267699999999511e-01,1.708404400000000092e-03
8.096181900000000153e-01,1.781701699999999923e-03
8.097096099999999685e-01,1.857847300000000030e-03
8.098010300000000328e-01,1.936938100000000062e-03
8.098924600000000362e-01,2.019073900000000008e-03
8.099838799999999894e-01,2.104357299999999945e-03
8.100753000000000537e-01,2.192893500000000183e-03
8.101667200000000069e-01,2.284790899999999958e-03
8.102581399999999601e-01,2.380160499999999825e-03
8.103495600000000243e-01,2.479116700000000197e-03
8.104409799999999775e-01,2.581776400000000173e-03
8.105324000000000417e-01,2.688260100000000076e-03
8.106238199999999949e-01,2.798691099999999887e-03
8.107152399999999481e-01,2.913195899999999807e-03
8.108066600000000124e-01,3.031904499999999933e-03
8.108980799999999656e-01,3.154949900000000081e-03
8.109895000000000298e-01,3.282468699999999996e-03
8.110809199999999830e-01,3.414600600000000045e-03
8.111723499999999865e-01,3.551489100000000156e-03
8.112637700000000507e-01,3.693280800000000013e-03
8.113551900000000039e-01,3.840126100000000164e-03
8.114466099999999571e-01,3.992178899999999746e-03
8.115380300000000213e-01,4.149596799999999593e-03
8.116294499999999745e-01,4.312540899999999996e-03
8.117208700000000388e-01,4.481176299999999578e-03
8.118122899999999920e-01,4.655671699999999920e-03
8.119037099999999452e-01,4.836199499999999964e-03
8.119951300000000094e-01,5.022936100000000015e-03
8.120865499999999626e-01,5.216061800000000408e-03
8.121779700000000268e-01,5.415760799999999771e-03
8.122693899999999800e-01,5.622221299999999831e-03
8.123608100000000443e-01,5.835635300000000143e-03
8.124522400000000477e-01,6.056199100000000425e-03
8.125436600000000009e-01,6.284112900000000425e-03
8.126350799999999541e-01,6.519581099999999588e-03
8.127265000000000184e-01,6.762812200000000058e-03
8.128179199999999716e-01,7.014018799999999741e-03
8.129093400000000358e-01,7.273417800000000176e-03
8.130007599999999890e-01,7.541230000000000329e-03
8.130921800000000532e-01,7.817680900000000335e-03
8.131836000000000064e-01,8.102999799999999891e-03
8.132750199999999596e-01,8.397420600000000263e-03
8.133664400000000239e-01,8.701181100000000140e-03
8.134578599999999771e-01,9.014523800000000253e-03
8.135492800000000413e-01,9.337695099999999623e-03
8.136406999999999945e-01,9.670945999999999709e-03
8.137321299999999979e-01,1.001453199999999960e-02
8.138235499999999512e-01,1.036871099999999921e-02
8.139149700000000154e-01,1.073374900000000076e-02
8.140063899999999686e-01,1.110991300000000077e-02
8.140978100000000328e-01,1.149747500000000006e-02
8.141892299999999860e-01,1.189671200000000026e-02
8.142806500000000502e-01,1.230790499999999919e-02
8.143720700000000035e-01,1.273133899999999950e-02
8.144634899999999567e-01,1.316730200000000052e-02
8.145549100000000209e-01,1.361609000000000083e-02
8.146463299999999741e-01,1.407799799999999955e-02
8.147377500000000383e-01,1.455332900000000027e-02
8.148291699999999915e-01,1.504238899999999976e-02
8.149205899999999447e-01,1.554548799999999967e-02
8.150120199999999482e-01,1.606293899999999830e-02
8.151034400000000124e-01,1.659505899999999881e-02
8.151948599999999656e-01,1.714217200000000066e-02
8.152862800000000298e-01,1.770460100000000037e-02
8.153776999999999830e-01,1.828267700000000065e-02
8.154691200000000473e-01,1.887673200000000023e-02
8.155605400000000005e-01,1.948710299999999868e-02
8.156519599999999537e-01,2.011413000000000090e-02
8.157433800000000179e-01,2.075815599999999983e-02
8.158347999999999711e-01,2.141952800000000018e-02
8.159262200000000353e-01,2.209859700000000107e-02
8.160176399999999886e-01,2.279571500000000112e-02
8.161090600000000528e-01,2.351123999999999922e-02
8.162004800000000060e-01,2.424553000000000125e-02
8.162918999999999592e-01,2.499894899999999948e-02
8.163833299999999626e-01,2.577186100000000007e-02
8.164747500000000269e-01,2.656463300000000069e-02
8.165661699999999801e-01,2.737763699999999981e-02
8.166575900000000443e-01,2.821124499999999938e-02
8.167490099999999975e-01,2.906583100000000031e-02
8.168404299999999507e-01,2.994177300000000139e-02
8.169318500000000149e-01,3.083944900000000142e-02
8.170232699999999681e-01,3.175924200000000003e-02
8.171146900000000324e-01,3.270153199999999843e-02
8.172061099999999856e-01,3.366670399999999869e-02
8.172975300000000498e-01,3.465514299999999936e-02
8.173889500000000030e-01,3.566723599999999800e-02
8.174803699999999562e-01,3.670336999999999905e-02
8.175717900000000204e-01,3.776393399999999900e-02
8.176632200000000239e-01,3.884931700000000127e-02
8.177546399999999771e-01,3.995990700000000284e-02
8.178460600000000413e-01,4.109609499999999915e-02
8.179374799999999945e-01,4.225827100000000003e-02
8.180288999999999477e-01,4.344682300000000247e-02
8.181203200000000120e-01,4.466214200000000190e-02
8.182117399999999652e-01,4.590461500000000278e-02
8.183031600000000294e-01,4.717463100000000159e-02
8.183945799999999826e-01,4.847257700000000280e-02
8.184860000000000468e-01,4.979883799999999805e-02
8.185774200000000000e-01,5.115379899999999980e-02
8.186688399999999532e-01,5.253784200000000126e-02
8.187602600000000175e-01,5.395134800000000314e-02
8.188516799999999707e-01,5.539469400000000127e-02
8.189431099999999741e-01,5.686825799999999792e-02
8.190345300000000384e-01,5.837241299999999800e-02
8.191259499999999916e-01,5.990752900000000103e-02
8.192173699999999448e-01,6.147397300000000120e-02
8.193087900000000090e-01,6.307211100000000015e-02
8.194002099999999622e-01,6.470230000000000425e-02
8.194916300000000264e-01,6.636490000000000444e-02
8.195830499999999796e-01,6.806025999999999743e-02
8.196744700000000439e-01,6.978872999999999327e-02
8.197658899999999971e-01,7.155065200000000625e-02
8.198573099999999503e-01,7.334636399999999723e-02
8.199487300000000145e-01,7.517619799999999963e-02
8.200401499999999677e-01,7.704048300000000682e-02
8.201315700000000319e-01,7.893953900000000301e-02
8.202230000000000354e-01,8.087368100000000282e-02
8.203144199999999886e-01,8.284321899999999572e-02
8.204058400000000528e-01,8.484845500000000318e-02
8.204972600000000060e-01,8.688968299999999534e-02
8.205886799999999592e-01,8.896719200000000050e-02
8.206801000000000235e-01,9.108126299999999564e-02
8.207715199999999767e-01,9.323216900000000362e-02
8.208629400000000409e-01,9.542017299999999702e-02
8.209543599999999941e-01,9.764553300000000657e-02
8.210457799999999473e-01,9.990849599999999942e-02
8.211372000000000115e-01,1.022093000000000029e-01
8.212286199999999647e-01,1.045481800000000044e-01
8.213200400000000290e-01,1.069253500000000023e-01
8.214114599999999822e-01,1.093410199999999971e-01
8.215028800000000464e-01,1.117954000000000031e-01
8.215943100000000499e-01,1.142886699999999950e-01
8.216857300000000031e-01,1.168210100000000029e-01
8.217771499999999563e-01,1.193926000000000015e-01
8.218685700000000205e-01,1.220035899999999951e-01
8.219599899999999737e-01,1.246541300000000019e-01
8.220514100000000379e-01,1.273443499999999950e-01
8.221428299999999911e-01,1.300743799999999895e-01
8.222342500000000554e-01,1.328443300000000105e-01
8.223256700000000086e-01,1.356543000000000054e-01
8.224170899999999618e-01,1.385043800000000103e-01
8.225085100000000260e-01,1.413946299999999934e-01
8.225999299999999792e-01,1.443251299999999959e-01
8.226913500000000434e-01,1.472959199999999969e-01
8.227827699999999966e-01,1.503070300000000081e-01
8.228742000000000001e-01,1.533585000000000087e-01
8.229656199999999533e-01,1.564503100000000091e-01
8.230570400000000175e-01,1.595824799999999988e-01
8.231484599999999707e-01,1.627549699999999988e-01
8.232398800000000350e-01,1.659677599999999920e-01
8.233312999999999882e-01,1.692207900000000098e-01
8.234227200000000524e-01,1.725140000000000007e-01
8.235141400000000056e-01,1.758473200000000014e-01
8.236055599999999588e-01,1.792206600000000039e-01
8.236969800000000230e-01,1.826338899999999932e-01
8.237883999999999762e-01,1.860868999999999995e-01
8.238798200000000405e-01,1.895795600000000081e-01
8.239712399999999937e-01,1.931117099999999920e-01
8.240626599999999469e-01,1.966831699999999905e-01
8.241540899999999503e-01,2.002937700000000099e-01
8.242455100000000145e-01,2.039433099999999888e-01
8.243369299999999678e-01,2.076315599999999928e-01
8.244283500000000320e-01,2.113583099999999937e-01
8.245197699999999852e-01,2.151232899999999948e-01
8.246111900000000494e-01,2.189262499999999889e-01
8.247026100000000026e-01,2.227669100000000124e-01
8.247940299999999558e-01,2.266449799999999959e-01
8.248854500000000201e-01,2.305601399999999968e-01
