#wavelength,transmission
8.171899900000000327e-01,5.574234600000000321e-10
8.172565499999999705e-01,5.916393999999999494e-10
8.173231199999999586e-01,6.278996499999999639e-10
8.173896800000000074e-01,6.663227699999999634e-10
8.174562399999999451e-01,7.070340299999999484e-10
8.175228100000000442e-01,7.501657600000000397e-10
8.175893699999999820e-01,7.958577600000000304e-10
8.176559300000000308e-01,8.442575499999999825e-10
8.177225000000000188e-01,8.955208100000000154e-10
8.177890599999999566e-01,9.498121699999999999e-10
8.178556200000000054e-01,1.007305200000000030e-09
8.179221899999999934e-01,1.068183000000000053e-09
8.179887500000000422e-01,1.132639100000000054e-09
8.180553099999999800e-01,1.200877599999999952e-09
8.181218799999999680e-01,1.273113799999999930e-09
8.181884400000000168e-01,1.349575000000000067e-09
8.182549999999999546e-01,1.430500699999999988e-09
8.183215700000000536e-01,1.516143999999999929e-09
8.183881299999999914e-01,1.606771599999999915e-09
8.184546900000000402e-01,1.702664700000000042e-09
8.185212600000000283e-01,1.804120100000000002e-09
8.185878199999999660e-01,1.911450400000000180e-09
8.186543800000000148e-01,2.024985699999999926e-09
8.187209500000000029e-01,2.145073599999999821e-09
8.187875100000000517e-01,2.272080800000000127e-09
8.188540699999999894e-01,2.406393599999999907e-09
8.189206399999999775e-01,2.548419199999999926e-09
8.189872000000000263e-01,2.698586900000000133e-09
8.190537599999999641e-01,2.857348999999999952e-09
8.191203299999999521e-01,3.025181999999999904e-09
8.191868900000000009e-01,3.202587899999999952e-09
8.192534500000000497e-01,3.390095599999999950e-09
8.193200200000000377e-01,3.588262300000000086e-09
8.193865799999999755e-01,3.797674700000000028e-09
8.194531400000000243e-01,4.018950700000000288e-09
8.195197100000000123e-01,4.252741300000000351e-09
8.195862699999999501e-01,4.499731500000000200e-09
8.196528299999999989e-01,4.760642799999999872e-09
8.197193999999999869e-01,5.036234599999999904e-09
8.197859600000000357e-01,5.327306300000000352e-09
8.198525199999999735e-01,5.634699399999999800e-09
8.199190899999999615e-01,5.959299500000000138e-09
8.199856500000000104e-01,6.302038399999999784e-09
8.200522099999999481e-01,6.663896600000000275e-09
8.201187800000000472e-01,7.045905799999999614e-09
8.201853399999999850e-01,7.449151299999999656e-09
8.202519000000000338e-01,7.874775000000000447e-09
8.203184700000000218e-01,8.323977400000000033e-09
8.203850299999999596e-01,8.798021600000000699e-09
8.204515900000000084e-01,9.298235600000000601e-09
8.205181599999999964e-01,9.826016099999999945e-09
8.205847200000000452e-01,1.038283100000000013e-08
8.206512799999999830e-01,1.097022500000000055e-08
8.207178400000000318e-01,1.158981900000000009e-08
8.207844100000000198e-01,1.224332000000000028e-08
8.208509699999999576e-01,1.293251999999999992e-08
8.209175300000000064e-01,1.365930300000000072e-08
8.209840999999999944e-01,1.442564799999999990e-08
8.210506600000000432e-01,1.523363499999999875e-08
8.211172199999999810e-01,1.608544899999999897e-08
8.211837899999999690e-01,1.698338500000000090e-08
8.212503500000000178e-01,1.792985399999999887e-08
8.213169099999999556e-01,1.892738899999999960e-08
8.213834800000000547e-01,1.997864699999999974e-08
8.214500399999999924e-01,2.108642199999999987e-08
8.215166000000000412e-01,2.225364500000000127e-08
8.215831700000000293e-01,2.348339499999999943e-08
8.216497299999999671e-01,2.477890100000000126e-08
8.217162900000000159e-01,2.614355700000000011e-08
8.217828600000000039e-01,2.758092000000000157e-08
8.218494200000000527e-01,2.909472799999999945e-08
8.219159799999999905e-01,3.068889900000000193e-08
8.219825499999999785e-01,3.236754700000000025e-08
8.220491100000000273e-01,3.413498700000000009e-08
8.221156699999999651e-01,3.599574500000000162e-08
8.221822399999999531e-01,3.795456999999999997e-08
8.222488000000000019e-01,4.001644200000000106e-08
8.223153600000000507e-01,4.218658199999999828e-08
8.223819300000000387e-01,4.447046900000000111e-08
8.224484899999999765e-01,4.687384400000000326e-08
8.225150500000000253e-01,4.940272800000000170e-08
8.225816200000000133e-01,5.206343100000000279e-08
8.226481799999999511e-01,5.486257000000000155e-08
8.227147399999999999e-01,5.780707800000000112e-08
8.227813099999999880e-01,6.090422199999999859e-08
8.228478700000000368e-01,6.416161599999999910e-08
8.229144299999999745e-01,6.758723900000000171e-08
8.229809999999999626e-01,7.118945099999999792e-08
8.230475600000000114e-01,7.497700799999999955e-08
8.231141199999999492e-01,7.895908299999999585e-08
8.231806900000000482e-01,8.314528300000000193e-08
8.232472499999999860e-01,8.754567199999999658e-08
8.233138100000000348e-01,9.217078399999999595e-08
8.233803800000000228e-01,9.703165199999999984e-08
8.234469399999999606e-01,1.021398300000000054e-07
8.235135000000000094e-01,1.075074000000000062e-07
8.235800699999999974e-01,1.131470300000000036e-07
8.236466300000000462e-01,1.190719700000000061e-07
8.237131899999999840e-01,1.252960700000000016e-07
8.237797599999999720e-01,1.318338499999999996e-07
8.238463200000000208e-01,1.387004899999999953e-07
8.239128799999999586e-01,1.459118699999999948e-07
8.239794499999999466e-01,1.534846099999999891e-07
8.240460099999999954e-01,1.614360899999999994e-07
8.241125700000000442e-01,1.697844900000000108e-07
8.241791299999999820e-01,1.785488200000000018e-07
8.242456999999999701e-01,1.877489699999999930e-07
8.243122600000000189e-01,1.974057099999999945e-07
8.243788199999999566e-01,2.075408000000000078e-07
8.244453899999999447e-01,2.181769500000000126e-07
8.245119499999999935e-01,2.293379100000000030e-07
8.245785100000000423e-01,2.410485000000000160e-07
8.246450800000000303e-01,2.533346799999999890e-07
8.247116399999999681e-01,2.662235600000000075e-07
8.247782000000000169e-01,2.797434699999999768e-07
8.248447700000000049e-01,2.939239999999999789e-07
8.249113300000000537e-01,3.087960799999999803e-07
8.249778899999999915e-01,3.243920099999999939e-07
8.250444599999999795e-01,3.407455199999999787e-07
8.251110200000000283e-01,3.578918600000000078e-07
8.251775799999999661e-01,3.758678000000000035e-07
8.252441499999999541e-01,3.947117800000000169e-07
8.253107100000000029e-01,4.144638999999999795e-07
8.253772700000000517e-01,4.351660500000000164e-07
8.254438400000000398e-01,4.568619200000000059e-07
8.255103999999999775e-01,4.795971499999999648e-07
8.255769600000000263e-01,5.034193399999999789e-07
8.256435300000000144e-01,5.283781899999999695e-07
8.257100899999999521e-01,5.545255499999999809e-07
8.257766500000000010e-01,5.819154899999999575e-07
8.258432199999999890e-01,6.106044700000000435e-07
8.259097800000000378e-01,6.406513400000000526e-07
8.259763399999999756e-01,6.721174900000000131e-07
8.260429099999999636e-01,7.050669600000000366e-07
8.261094700000000124e-01,7.395665300000000099e-07
8.261760299999999502e-01,7.756857999999999908e-07
8.262426000000000492e-01,8.134973899999999806e-07
8.263091599999999870e-01,8.530769499999999605e-07
8.263757200000000358e-01,8.945033700000000181e-07
8.264422900000000238e-01,9.378588700000000387e-07
8.265088499999999616e-01,9.832291400000000009e-07
8.265754100000000104e-01,1.030703499999999923e-06
8.266419799999999984e-01,1.080374900000000072e-06
8.267085400000000472e-01,1.132340300000000016e-06
8.267750999999999850e-01,1.186700799999999943e-06
8.268416699999999731e-01,1.243561399999999996e-06
8.269082300000000219e-01,1.303031800000000007e-06
8.269747899999999596e-01,1.365226100000000097e-06
8.270413599999999477e-01,1.430263100000000072e-06
8.271079199999999965e-01,1.498266399999999999e-06
8.271744800000000453e-01,1.569364899999999900e-06
8.272410500000000333e-01,1.643692700000000023e-06
8.273076099999999711e-01,1.721389400000000031e-06
8.273741700000000199e-01,1.802600199999999992e-06
8.274407400000000079e-01,1.887476400000000081e-06
8.275072999999999457e-01,1.976175200000000063e-06
8.275738599999999945e-01,2.068860300000000200e-06
8.276404299999999825e-01,2.165702099999999859e-06
8.277069900000000313e-01,2.266877699999999843e-06
8.277735499999999691e-01,2.372571399999999966e-06
8.278401100000000179e-01,2.482974900000000204e-06
8.279066800000000059e-01,2.598287600000000090e-06
8.279732400000000547e-01,2.718716699999999923e-06
8.280397999999999925e-01,2.844477700000000039e-06
8.281063699999999805e-01,2.975794800000000147e-06
8.281729300000000293e-01,3.112900799999999813e-06
8.282394899999999671e-01,3.256037900000000090e-06
8.283060599999999551e-01,3.405457700000000129e-06
8.283726200000000039e-01,3.561421800000000207e-06
8.284391800000000528e-01,3.724201800000000027e-06
8.285057500000000408e-01,3.894080299999999811e-06
8.285723099999999786e-01,4.071350400000000172e-06
8.286388700000000274e-01,4.256317000000000062e-06
8.287054400000000154e-01,4.449296600000000277e-06
8.287719999999999532e-01,4.650617900000000128e-06
8.288385600000000020e-01,4.860622199999999739e-06
8.289051299999999900e-01,5.079664200000000411e-06
8.289716900000000388e-01,5.308111799999999657e-06
8.290382499999999766e-01,5.546347299999999792e-06
8.291048199999999646e-01,5.794767099999999646e-06
8.291713800000000134e-01,6.053783099999999641e-06
8.292379399999999512e-01,6.323822600000000157e-06
8.293045100000000502e-01,6.605329000000000265e-06
8.293710699999999880e-01,6.898762399999999894e-06
8.294376300000000368e-01,7.204600300000000261e-06
8.295042000000000249e-01,7.523337800000000358e-06
8.295707599999999626e-01,7.855488699999999672e-06
8.296373200000000114e-01,8.201585999999999574e-06
8.297038899999999995e-01,8.562182099999999813e-06
8.297704500000000483e-01,8.937850199999999355e-06
8.298370099999999860e-01,9.329184599999999590e-06
8.299035799999999741e-01,9.736801300000000583e-06
8.299701400000000229e-01,1.016133900000000046e-05
8.300366999999999607e-01,1.060345999999999995e-05
8.301032699999999487e-01,1.106385000000000081e-05
8.301698299999999975e-01,1.154321999999999957e-05
8.302363900000000463e-01,1.204230700000000071e-05
8.303029600000000343e-01,1.256187500000000075e-05
8.303695199999999721e-01,1.310271599999999952e-05
8.304360800000000209e-01,1.366564700000000032e-05
8.305026500000000089e-01,1.425151799999999991e-05
8.305692099999999467e-01,1.486120900000000058e-05
8.306357699999999955e-01,1.549562999999999990e-05
8.307023399999999835e-01,1.615572300000000144e-05
8.307689000000000323e-01,1.684246400000000165e-05
8.308354599999999701e-01,1.755686499999999881e-05
8.309020299999999581e-01,1.829997100000000165e-05
8.309685900000000069e-01,1.907286499999999920e-05
8.310351499999999447e-01,1.987666900000000083e-05
8.311017200000000438e-01,2.071254000000000142e-05
8.311682799999999816e-01,2.158167999999999900e-05
8.312348400000000304e-01,2.248532999999999839e-05
8.313013999999999681e-01,2.342477500000000138e-05
8.313679699999999562e-01,2.440134300000000060e-05
8.314345300000000050e-01,2.541640800000000136e-05
8.315010900000000538e-01,2.647139200000000014e-05
8.315676600000000418e-01,2.756776399999999873e-05
8.316342199999999796e-01,2.870704500000000121e-05
8.317007800000000284e-01,2.989080399999999944e-05
8.317673500000000164e-01,3.112066699999999807e-05
8.318339099999999542e-01,3.239831199999999726e-05
8.319004700000000030e-01,3.372547400000000317e-05
8.319670399999999910e-01,3.510394700000000307e-05
8.320336000000000398e-01,3.653558300000000320e-05
8.321001599999999776e-01,3.802229799999999799e-05
8.321667299999999656e-01,3.956606799999999965e-05
8.322332900000000144e-01,4.116893800000000214e-05
8.322998499999999522e-01,4.283301799999999723e-05
8.323664200000000513e-01,4.456048699999999910e-05
8.324329799999999890e-01,4.635359599999999854e-05
8.324995400000000378e-01,4.821467000000000233e-05
8.325661100000000259e-01,5.014610799999999941e-05
8.326326699999999637e-01,5.215038699999999906e-05
8.326992300000000125e-01,5.423006499999999863e-05
8.327658000000000005e-01,5.638778099999999707e-05
8.328323600000000493e-01,5.862625800000000325e-05
8.328989199999999871e-01,6.094830800000000247e-05
8.329654899999999751e-01,6.335682999999999831e-05
8.330320500000000239e-01,6.585481699999999822e-05
8.330986099999999617e-01,6.844535399999999439e-05
8.331651799999999497e-01,7.113162699999999556e-05
8.332317399999999985e-01,7.391691699999999681e-05
8.332983000000000473e-01,7.680461199999999932e-05
8.333648700000000353e-01,7.979820200000000330e-05
8.334314299999999731e-01,8.290128899999999509e-05
8.334979900000000219e-01,8.611758199999999428e-05
8.335645600000000099e-01,8.945090799999999619e-05
8.336311199999999477e-01,9.290520899999999739e-05
8.336976799999999965e-01,9.648454899999999487e-05
8.337642499999999846e-01,1.001931200000000027e-04
8.338308100000000334e-01,1.040352200000000044e-04
8.338973699999999711e-01,1.080153199999999970e-04
8.339639399999999592e-01,1.121379700000000007e-04
8.340305000000000080e-01,1.164079099999999945e-04
8.340970599999999457e-01,1.208299900000000063e-04
8.341636300000000448e-01,1.254092099999999925e-04
8.342301899999999826e-01,1.301507300000000027e-04
8.342967500000000314e-01,1.350598399999999866e-04
8.343633200000000194e-01,1.401420000000000009e-04
8.344298799999999572e-01,1.454028500000000067e-04
8.344964400000000060e-01,1.508481500000000001e-04
8.345630099999999940e-01,1.564838599999999916e-04
8.346295700000000428e-01,1.623161200000000041e-04
8.346961299999999806e-01,1.683512099999999890e-04
8.347626900000000294e-01,1.745956299999999945e-04
8.348292600000000174e-01,1.810560500000000129e-04
8.348958199999999552e-01,1.877393300000000089e-04
8.349623800000000040e-01,1.946525099999999874e-04
8.350289499999999920e-01,2.018028699999999966e-04
8.350955100000000408e-01,2.091978600000000022e-04
8.351620699999999786e-01,2.168451399999999979e-04
8.352286399999999666e-01,2.247526200000000084e-04
8.352952000000000155e-01,2.329283899999999899e-04
8.353617599999999532e-01,2.413807799999999966e-04
8.354283300000000523e-01,2.501183499999999767e-04
8.354948899999999901e-01,2.591499100000000180e-04
8.355614500000000389e-01,2.684844800000000197e-04
8.356280200000000269e-01,2.781313600000000089e-04
8.356945799999999647e-01,2.881000899999999754e-04
8.357611400000000135e-01,2.984004499999999799e-04
8.358277100000000015e-01,3.090425200000000228e-04
8.358942700000000503e-01,3.200366200000000130e-04
8.359608299999999881e-01,3.313933600000000014e-04
8.360273999999999761e-01,3.431236300000000045e-04
8.360939600000000249e-01,3.552386000000000042e-04
8.361605199999999627e-01,3.677497600000000045e-04
8.362270899999999507e-01,3.806688799999999751e-04
8.362936499999999995e-01,3.940080400000000021e-04
8.363602100000000483e-01,4.077796499999999913e-04
8.364267800000000364e-01,4.219964099999999911e-04
8.364933399999999741e-01,4.366713899999999805e-04
8.365599000000000229e-01,4.518179700000000010e-04
8.366264700000000110e-01,4.674498699999999826e-04
8.366930299999999487e-01,4.835811699999999886e-04
8.367595899999999975e-01,5.002262999999999848e-04
8.368261599999999856e-01,5.174000700000000452e-04
8.368927200000000344e-01,5.351176400000000376e-04
8.369592799999999722e-01,5.533945700000000205e-04
8.370258499999999602e-01,5.722467899999999835e-04
8.370924100000000090e-01,5.916906300000000524e-04
8.371589699999999468e-01,6.117428300000000161e-04
8.372255400000000458e-01,6.324205300000000163e-04
8.372920999999999836e-01,6.537412999999999948e-04
8.373586600000000324e-01,6.757231299999999496e-04
8.374252300000000204e-01,6.983844400000000039e-04
8.374917899999999582e-01,7.217441099999999604e-04
8.375583500000000070e-01,7.458214499999999639e-04
8.376249199999999950e-01,7.706362499999999758e-04
8.376914800000000438e-01,7.962087599999999625e-04
8.377580399999999816e-01,8.225597199999999925e-04
8.378246099999999696e-01,8.497103199999999626e-04
8.378911700000000184e-01,8.776822999999999569e-04
8.379577299999999562e-01,9.064978499999999965e-04
8.380243000000000553e-01,9.361797200000000329e-04
8.380908599999999931e-01,9.667511599999999714e-04
8.381574200000000419e-01,9.982359400000000247e-04
8.382239900000000299e-01,1.030658399999999971e-03
8.382905499999999677e-01,1.064043399999999896e-03
8.383571100000000165e-01,1.098416399999999982e-03
8.384236699999999542e-01,1.133803399999999987e-03
8.384902400000000533e-01,1.170230900000000058e-03
8.385567999999999911e-01,1.207726299999999997e-03
8.386233600000000399e-01,1.246317100000000075e-03
8.386899300000000279e-01,1.286031800000000036e-03
8.387564899999999657e-01,1.326899500000000044e-03
8.388230500000000145e-01,1.368949599999999935e-03
8.388896200000000025e-01,1.412212599999999917e-03
8.389561800000000513e-01,1.456719300000000085e-03
8.390227399999999891e-01,1.502501199999999905e-03
8.390893099999999771e-01,1.549590700000000017e-03
8.391558700000000259e-01,1.598020599999999897e-03
8.392224299999999637e-01,1.647824599999999978e-03
8.392889999999999517e-01,1.699036899999999996e-03
8.393555600000000005e-01,1.751692599999999994e-03
8.394221200000000493e-01,1.805827400000000003e-03
8.394886900000000374e-01,1.861477700000000075e-03
8.395552499999999752e-01,1.918680799999999921e-03
8.396218100000000240e-01,1.977474700000000137e-03
8.396883800000000120e-01,2.037897900000000193e-03
8.397549399999999498e-01,2.099990199999999998e-03
8.398214999999999986e-01,2.163791600000000183e-03
8.398880699999999866e-01,2.229343200000000018e-03
8.399546300000000354e-01,2.296686999999999947e-03
8.400211899999999732e-01,2.365865600000000186e-03
8.400877599999999612e-01,2.436922499999999957e-03
8.401543200000000100e-01,2.509902000000000053e-03
8.402208799999999478e-01,2.584849299999999843e-03
8.402874500000000468e-01,2.661810499999999868e-03
8.403540099999999846e-01,2.740832400000000040e-03
8.404205700000000334e-01,2.821962700000000147e-03
8.404871400000000214e-01,2.905250199999999915e-03
8.405536999999999592e-01,2.990744400000000178e-03
8.406202600000000080e-01,3.078495799999999942e-03
8.406868299999999961e-01,3.168555600000000187e-03
8.407533900000000449e-01,3.260976300000000168e-03
8.408199499999999826e-01,3.355810900000000176e-03
8.408865199999999707e-01,3.453113800000000115e-03
8.409530800000000195e-01,3.552939900000000057e-03
8.410196399999999572e-01,3.655345400000000085e-03
8.410862099999999453e-01,3.760387400000000154e-03
8.411527699999999941e-01,3.868123800000000060e-03
8.412193300000000429e-01,3.978613699999999573e-03
8.412859000000000309e-01,4.091917100000000071e-03
8.413524599999999687e-01,4.208095099999999839e-03
8.414190200000000175e-01,4.327209599999999601e-03
8.414855900000000055e-01,4.449323800000000093e-03
8.415521500000000543e-01,4.574501800000000187e-03
8.416187099999999921e-01,4.702808699999999967e-03
8.416852799999999801e-01,4.834310700000000321e-03
8.417518400000000289e-01,4.969075100000000349e-03
8.418183999999999667e-01,5.107170099999999886e-03
8.418849600000000155e-01,5.248665300000000117e-03
8.419515300000000035e-01,5.393631000000000293e-03
8.420180900000000523e-01,5.542138799999999678e-03
8.420846499999999901e-01,5.694261400000000077e-03
8.421512199999999781e-01,5.850072399999999700e-03
8.422177800000000270e-01,6.009646900000000305e-03
8.422843399999999647e-01,6.173060699999999984e-03
8.423509099999999528e-01,6.340390900000000309e-03
8.424174700000000016e-01,6.511715799999999790e-03
8.424840300000000504e-01,6.687114699999999884e-03
8.425506000000000384e-01,6.866668099999999851e-03
8.426171599999999762e-01,7.050457500000000162e-03
8.426837200000000250e-01,7.238565700000000429e-03
8.427502900000000130e-01,7.431076699999999806e-03
8.428168499999999508e-01,7.628075500000000390e-03
8.428834099999999996e-01,7.829648200000000752e-03
8.429499799999999876e-01,8.035882399999999537e-03
8.430165400000000364e-01,8.246866300000000802e-03
8.430830999999999742e-01,8.462689900000000542e-03
8.431496699999999622e-01,8.683443799999999296e-03
8.432162300000000110e-01,8.909220199999999881e-03
8.432827899999999488e-01,9.140112100000000184e-03
8.433493600000000479e-01,9.376214000000000770e-03
8.434159199999999856e-01,9.617621300000000345e-03
8.434824800000000344e-01,9.864430699999999358e-03
8.435490500000000225e-01,1.011674000000000080e-02
8.436156099999999602e-01,1.037464800000000020e-02
8.436821700000000090e-01,1.063825600000000045e-02
